2010-02-04,0,0.0,27.0,27.2,temperatura
2010-02-04,100,0.0,26.8,27.1,temperatura
2010-02-04,200,0.0,26.5,26.8,temperatura
2010-02-04,300,0.0,26.4,26.6,temperatura
2010-02-04,400,0.0,26.3,26.5,temperatura
2010-02-04,500,0.0,26.2,26.3,temperatura
2010-02-04,600,0.0,25.8,26.3,temperatura
2010-02-04,700,0.0,25.7,25.9,temperatura
2010-02-04,800,0.0,25.4,25.8,temperatura
2010-02-04,900,0.0,25.6,25.6,temperatura
2010-02-04,1000,0.0,28.9,28.9,temperatura
2010-02-04,1100,0.0,32.5,32.5,temperatura
2010-02-04,1200,0.0,35.0,35.0,temperatura
2010-02-04,1300,0.0,36.9,36.9,temperatura
2010-02-04,1400,0.0,37.9,38.0,temperatura
2010-02-04,1500,0.0,38.6,39.0,temperatura
2010-02-04,1600,0.0,32.3,38.8,temperatura
2010-02-04,1700,0.0,31.4,32.7,temperatura
2010-02-04,1800,0.0,34.2,39.7,temperatura
2010-02-04,1900,0.0,31.4,38.1,temperatura
2010-02-04,2000,0.0,29.3,31.4,temperatura
2010-02-04,2100,6.0,26.8,29.5,temperatura
2010-02-04,2200,15.4,22.5,26.8,temperatura
2010-02-04,2300,1.4,23.9,23.9,temperatura
2012-12-07,0,0.0,23.6,23.9,temperatura
2012-12-07,100,0.0,24.8,25.1,temperatura
2012-12-07,200,0.0,24.2,24.8,temperatura
2012-12-07,300,0.0,23.3,24.6,temperatura
2012-12-07,400,0.0,22.3,23.3,temperatura
2012-12-07,500,0.0,22.3,22.5,temperatura
2012-12-07,600,0.0,22.7,22.8,temperatura
2012-12-07,700,0.0,22.2,22.7,temperatura
2012-12-07,800,0.0,22.5,22.5,temperatura
2012-12-07,900,0.0,23.5,23.5,temperatura
2012-12-07,1000,0.0,29.2,29.2,temperatura
2012-12-07,1100,0.0,31.7,32.0,temperatura
2012-12-07,1200,0.0,31.5,31.8,temperatura
2012-12-07,1300,0.0,32.6,32.6,temperatura
2012-12-07,1400,0.0,32.8,32.8,temperatura
2012-12-07,1500,0.0,33.8,33.8,temperatura
2012-12-07,1600,2.2,24.7,35.2,temperatura
2012-12-07,1700,0.2,26.9,26.9,temperatura
2012-12-07,1800,0.0,28.9,28.9,temperatura
2012-12-07,1900,0.0,29.6,29.8,temperatura
2012-12-07,2000,0.0,29.5,29.8,temperatura
2012-12-07,2100,0.0,29.3,30.2,temperatura
2012-12-07,2200,0.0,27.9,29.3,temperatura
2012-12-07,2300,0.0,27.1,27.9,temperatura
2013-12-30,0,0.0,23.3,23.7,temperatura
2013-12-30,100,0.0,23.7,23.7,temperatura
2013-12-30,200,0.0,23.4,23.8,temperatura
2013-12-30,300,0.0,22.9,23.8,temperatura
2013-12-30,400,0.0,23.6,23.6,temperatura
2013-12-30,500,0.0,23.6,24.1,temperatura
2013-12-30,600,0.0,22.8,24.4,temperatura
2013-12-30,700,0.0,24.9,24.9,temperatura
2013-12-30,800,4.6,21.1,25.2,temperatura
2013-12-30,900,0.4,22.2,22.4,temperatura
2013-12-30,1000,0.0,24.0,24.0,temperatura
2013-12-30,1100,0.0,25.0,25.1,temperatura
2013-12-30,1200,0.0,25.0,25.1,temperatura
2013-12-30,1300,0.0,25.5,26.1,temperatura
2013-12-30,1400,0.0,25.8,26.6,temperatura
2013-12-30,1500,0.0,32.8,33.4,temperatura
2013-12-30,1600,0.0,35.0,35.4,temperatura
2013-12-30,1700,0.0,35.9,36.0,temperatura
2013-12-30,1800,0.0,27.6,36.3,temperatura
2013-12-30,1900,0.0,26.6,27.9,temperatura
2013-12-30,2000,0.0,26.2,26.8,temperatura
2013-12-30,2100,0.0,25.5,27.4,temperatura
2013-12-30,2200,0.0,25.9,26.3,temperatura
2013-12-30,2300,0.0,26.8,27.6,temperatura
2014-01-24,0,0.0,28.4,28.5,temperatura
2014-01-24,100,0.0,27.4,29.4,temperatura
2014-01-24,200,0.0,26.1,27.7,temperatura
2014-01-24,300,0.0,25.5,26.1,temperatura
2014-01-24,400,0.0,25.4,25.6,temperatura
2014-01-24,500,0.0,25.3,25.5,temperatura
2014-01-24,600,0.0,25.3,25.4,temperatura
2014-01-24,700,0.0,25.7,25.8,temperatura
2014-01-24,800,0.0,25.0,25.7,temperatura
2014-01-24,900,0.0,25.4,25.4,temperatura
2014-01-24,1000,0.0,27.4,27.4,temperatura
2014-01-24,1100,0.0,28.0,28.4,temperatura
2014-01-24,1200,0.0,33.5,34.0,temperatura
2014-01-24,1300,0.0,34.3,34.3,temperatura
2014-01-24,1400,0.0,34.0,35.0,temperatura
2014-01-24,1500,0.0,35.3,35.7,temperatura
2014-01-24,1600,0.0,35.9,36.3,temperatura
2014-01-24,1700,0.0,37.1,37.3,temperatura
2014-01-24,1800,0.0,37.3,37.6,temperatura
2014-01-24,1900,0.0,32.3,37.9,temperatura
2014-01-24,2000,0.0,28.7,33.0,temperatura
2014-01-24,2100,0.0,30.4,31.6,temperatura
2014-01-24,2200,0.0,26.7,30.7,temperatura
2014-01-24,2300,0.0,26.1,26.7,temperatura
2016-12-23,0,0.0,24.9,25.2,temperatura
2016-12-23,100,0.0,24.9,25.0,temperatura
2016-12-23,200,0.0,24.7,25.0,temperatura
2016-12-23,300,0.0,24.7,24.8,temperatura
2016-12-23,400,0.0,24.5,24.7,temperatura
2016-12-23,500,0.0,24.2,24.5,temperatura
2016-12-23,600,0.0,24.1,24.2,temperatura
2016-12-23,700,0.0,24.0,24.1,temperatura
2016-12-23,800,0.0,23.7,24.0,temperatura
2016-12-23,900,0.0,24.0,24.0,temperatura
2016-12-23,1000,0.0,26.2,26.3,temperatura
2016-12-23,1100,0.0,30.2,30.3,temperatura
2016-12-23,1200,0.0,31.4,31.4,temperatura
2016-12-23,1300,0.0,32.4,32.7,temperatura
2016-12-23,1400,0.0,33.2,33.4,temperatura
2016-12-23,1500,0.0,33.6,34.1,temperatura
2016-12-23,1600,0.0,34.4,34.8,temperatura
2016-12-23,1700,0.0,35.1,35.5,temperatura
2016-12-23,1800,0.0,34.4,35.4,temperatura
2016-12-23,1900,,,,temperatura
2016-12-23,2000,0.0,33.8,34.7,temperatura
2016-12-23,2100,0.4,26.7,35.1,temperatura
2016-12-23,2200,11.4,25.7,26.7,temperatura
2016-12-23,2300,0.0,25.3,26.0,temperatura
2018-03-11,0,,24.7,24.9,temperatura
2018-03-11,100,,24.7,24.8,temperatura
2018-03-11,200,,24.6,24.7,temperatura
2018-03-11,300,,24.5,24.7,temperatura
2018-03-11,400,,24.4,24.6,temperatura
2018-03-11,500,,24.4,24.5,temperatura
2018-03-11,600,,24.1,24.4,temperatura
2018-03-11,700,,23.5,24.1,temperatura
2018-03-11,800,,22.4,23.5,temperatura
2018-03-11,900,,22.0,22.4,temperatura
2018-03-11,1000,,22.8,22.8,temperatura
2018-03-11,1100,,24.3,24.3,temperatura
2018-03-11,1200,,27.2,27.3,temperatura
2018-03-11,1300,,29.8,29.8,temperatura
2018-03-11,1400,,33.4,33.7,temperatura
2018-03-11,1500,,33.1,33.9,temperatura
2018-03-11,1600,,34.4,34.8,temperatura
2018-03-11,1700,,34.5,34.9,temperatura
2018-03-11,1800,,34.6,35.2,temperatura
2018-03-11,1900,,34.8,35.3,temperatura
2018-03-11,2000,,33.8,34.9,temperatura
2018-03-11,2100,,25.9,33.9,temperatura
2018-03-11,2200,,25.0,25.9,temperatura
2018-03-11,2300,,24.4,25.0,temperatura
2019-01-16,0,0.0,27.1,27.1,temperatura
2019-01-16,100,0.0,27.7,27.9,temperatura
2019-01-16,200,0.0,27.6,27.7,temperatura
2019-01-16,300,0.0,24.1,27.8,temperatura
2019-01-16,400,0.0,24.6,24.6,temperatura
2019-01-16,500,0.0,23.5,24.8,temperatura
2019-01-16,600,0.0,23.3,23.5,temperatura
2019-01-16,700,0.0,23.2,23.3,temperatura
2019-01-16,800,0.0,23.9,23.9,temperatura
2019-01-16,900,0.0,25.0,25.0,temperatura
2019-01-16,1000,0.0,25.6,26.1,temperatura
2019-01-16,1100,0.0,27.6,27.8,temperatura
2019-01-16,1200,0.0,27.5,30.0,temperatura
2019-01-16,1300,0.0,34.0,34.0,temperatura
2019-01-16,1400,0.0,33.3,34.2,temperatura
2019-01-16,1500,0.0,33.5,34.4,temperatura
2019-01-16,1600,0.0,34.9,35.5,temperatura
2019-01-16,1700,0.0,33.2,35.2,temperatura
2019-01-16,1800,0.0,31.9,34.3,temperatura
2019-01-16,1900,0.0,31.6,32.1,temperatura
2019-01-16,2000,0.0,32.0,32.7,temperatura
2019-01-16,2100,0.0,30.7,32.1,temperatura
2019-01-16,2200,0.0,29.6,30.7,temperatura
2019-01-16,2300,0.0,28.7,29.6,temperatura
2019-01-29,0,0.0,28.2,29.5,temperatura
2019-01-29,100,0.0,25.9,28.2,temperatura
2019-01-29,200,0.0,26.2,26.4,temperatura
2019-01-29,300,0.0,27.1,27.1,temperatura
2019-01-29,400,0.0,26.5,27.7,temperatura
2019-01-29,500,0.0,27.4,27.4,temperatura
2019-01-29,600,0.0,26.1,27.4,temperatura
2019-01-29,700,0.0,26.0,26.2,temperatura
2019-01-29,800,0.0,24.9,26.0,temperatura
2019-01-29,900,0.0,24.8,25.1,temperatura
2019-01-29,1000,0.0,26.7,26.8,temperatura
2019-01-29,1100,0.0,29.6,29.6,temperatura
2019-01-29,1200,0.0,30.0,31.7,temperatura
2019-01-29,1300,0.0,30.0,30.6,temperatura
2019-01-29,1400,0.0,32.3,32.7,temperatura
2019-01-29,1500,0.0,32.3,35.3,temperatura
2019-01-29,1600,0.0,32.1,32.8,temperatura
2019-01-29,1700,0.0,32.3,34.1,temperatura
2019-01-29,1800,0.0,31.2,33.3,temperatura
2019-01-29,1900,0.0,30.9,31.4,temperatura
2019-01-29,2000,0.0,29.2,31.0,temperatura
2019-01-29,2100,4.6,23.5,29.2,temperatura
2019-01-29,2200,0.0,24.8,24.8,temperatura
2019-01-29,2300,0.0,25.0,25.2,temperatura
2019-01-30,0,0.0,24.9,25.1,temperatura
2019-01-30,100,0.0,25.1,25.1,temperatura
2019-01-30,200,0.0,26.7,26.7,temperatura
2019-01-30,300,0.0,26.7,26.7,temperatura
2019-01-30,400,0.0,27.3,27.5,temperatura
2019-01-30,500,0.0,27.3,27.4,temperatura
2019-01-30,600,0.0,26.7,27.3,temperatura
2019-01-30,700,0.0,26.0,26.8,temperatura
2019-01-30,800,0.0,26.7,26.7,temperatura
2019-01-30,900,0.0,26.5,27.0,temperatura
2019-01-30,1000,0.0,29.1,29.2,temperatura
2019-01-30,1100,0.0,31.6,31.6,temperatura
2019-01-30,1200,0.0,33.6,33.8,temperatura
2019-01-30,1300,0.0,35.5,35.5,temperatura
2019-01-30,1400,0.0,37.1,37.1,temperatura
2019-01-30,1500,0.0,36.4,37.5,temperatura
2019-01-30,1600,0.0,37.6,38.1,temperatura
2019-01-30,1700,0.0,37.7,38.4,temperatura
2019-01-30,1800,0.0,38.7,39.3,temperatura
2019-01-30,1900,0.0,38.3,39.0,temperatura
2019-01-30,2000,0.0,37.1,38.8,temperatura
2019-01-30,2100,0.0,34.7,37.1,temperatura
2019-01-30,2200,0.0,32.3,34.7,temperatura
2019-01-30,2300,0.0,27.5,32.5,temperatura
2019-02-23,0,0.0,25.7,25.8,temperatura
2019-02-23,100,0.0,25.5,25.7,temperatura
2019-02-23,200,0.0,25.3,25.5,temperatura
2019-02-23,300,0.0,24.8,25.3,temperatura
2019-02-23,400,0.0,24.6,24.8,temperatura
2019-02-23,500,0.0,24.2,24.7,temperatura
2019-02-23,600,0.0,22.7,24.2,temperatura
2019-02-23,700,0.0,21.9,22.7,temperatura
2019-02-23,800,0.0,22.0,22.0,temperatura
2019-02-23,900,0.0,21.8,22.1,temperatura
2019-02-23,1000,0.0,23.5,23.6,temperatura
2019-02-23,1100,0.0,25.2,25.2,temperatura
2019-02-23,1200,0.0,28.9,28.9,temperatura
2019-02-23,1300,0.0,31.5,31.7,temperatura
2019-02-23,1400,0.0,32.9,33.4,temperatura
2019-02-23,1500,0.0,34.4,34.9,temperatura
2019-02-23,1600,0.0,35.0,35.8,temperatura
2019-02-23,1700,0.0,36.0,36.2,temperatura
2019-02-23,1800,0.0,35.9,36.5,temperatura
2019-02-23,1900,0.0,36.4,36.5,temperatura
2019-02-23,2000,0.0,30.0,36.7,temperatura
2019-02-23,2100,0.0,28.2,30.0,temperatura
2019-02-23,2200,0.0,27.5,28.2,temperatura
2019-02-23,2300,0.0,27.4,27.9,temperatura
2008-04-13,0,0.2,21.2,22.2,precipitacao
2008-04-13,100,0.4,21.0,21.2,precipitacao
2008-04-13,200,0.0,21.5,21.6,precipitacao
2008-04-13,300,0.0,21.9,21.9,precipitacao
2008-04-13,400,0.0,21.6,21.9,precipitacao
2008-04-13,500,0.0,22.1,22.1,precipitacao
2008-04-13,600,0.0,21.2,22.2,precipitacao
2008-04-13,700,0.2,20.6,21.2,precipitacao
2008-04-13,800,0.0,20.5,20.6,precipitacao
2008-04-13,900,0.0,21.4,21.4,precipitacao
2008-04-13,1000,0.0,21.1,21.5,precipitacao
2008-04-13,1100,0.0,21.0,21.2,precipitacao
2008-04-13,1200,1.4,21.5,21.6,precipitacao
2008-04-13,1300,15.8,20.8,21.6,precipitacao
2008-04-13,1400,11.4,21.2,21.2,precipitacao
2008-04-13,1500,1.4,20.0,21.4,precipitacao
2008-04-13,1600,4.0,19.7,20.3,precipitacao
2008-04-13,1700,2.0,20.3,20.4,precipitacao
2008-04-13,1800,3.6,20.4,20.5,precipitacao
2008-04-13,1900,3.4,19.6,20.4,precipitacao
2008-04-13,2000,7.0,19.2,19.6,precipitacao
2008-04-13,2100,5.0,19.0,19.2,precipitacao
2008-04-13,2200,2.0,18.0,19.0,precipitacao
2008-04-13,2300,0.6,17.7,18.5,precipitacao
2008-05-03,0,2.2,17.9,18.5,precipitacao
2008-05-03,100,2.6,18.6,18.8,precipitacao
2008-05-03,200,21.2,15.0,18.6,precipitacao
2008-05-03,300,7.4,15.0,15.1,precipitacao
2008-05-03,400,9.0,15.0,15.6,precipitacao
2008-05-03,500,23.8,14.1,15.1,precipitacao
2008-05-03,600,40.8,17.7,17.9,precipitacao
2008-05-03,700,11.8,18.6,18.6,precipitacao
2008-05-03,800,5.0,18.4,19.1,precipitacao
2008-05-03,900,6.8,17.9,18.4,precipitacao
2008-05-03,1000,5.4,17.3,18.1,precipitacao
2008-05-03,1100,9.0,17.6,17.8,precipitacao
2008-05-03,1200,7.0,17.2,17.6,precipitacao
2008-05-03,1300,3.2,17.9,18.1,precipitacao
2008-05-03,1400,2.8,18.2,18.3,precipitacao
2008-05-03,1500,2.4,18.7,18.9,precipitacao
2008-05-03,1600,1.4,18.9,18.9,precipitacao
2008-05-03,1700,2.8,19.1,19.3,precipitacao
2008-05-03,1800,0.4,19.1,19.2,precipitacao
2008-05-03,1900,0.6,18.4,19.3,precipitacao
2008-05-03,2000,0.4,18.6,18.8,precipitacao
2008-05-03,2100,3.4,17.3,18.7,precipitacao
2008-05-03,2200,5.4,18.1,18.2,precipitacao
2008-05-03,2300,1.0,18.3,18.3,precipitacao
2008-08-18,0,2.2,14.5,14.7,precipitacao
2008-08-18,100,0.8,14.5,14.5,precipitacao
2008-08-18,200,0.4,14.2,14.5,precipitacao
2008-08-18,300,0.4,14.2,14.3,precipitacao
2008-08-18,400,0.6,14.2,14.2,precipitacao
2008-08-18,500,0.2,14.2,14.3,precipitacao
2008-08-18,600,0.8,14.1,14.2,precipitacao
2008-08-18,700,4.2,14.3,14.3,precipitacao
2008-08-18,800,3.2,14.6,14.6,precipitacao
2008-08-18,900,6.8,15.7,15.8,precipitacao
2008-08-18,1000,1.4,15.9,15.9,precipitacao
2008-08-18,1100,4.4,16.0,16.0,precipitacao
2008-08-18,1200,4.4,16.1,16.1,precipitacao
2008-08-18,1300,2.6,16.2,16.2,precipitacao
2008-08-18,1400,4.2,16.3,16.4,precipitacao
2008-08-18,1500,11.8,16.6,16.6,precipitacao
2008-08-18,1600,4.4,16.7,16.8,precipitacao
2008-08-18,1700,0.0,16.6,16.9,precipitacao
2008-08-18,1800,7.0,16.5,16.6,precipitacao
2008-08-18,1900,4.8,16.5,16.6,precipitacao
2008-08-18,2000,4.4,16.6,16.7,precipitacao
2008-08-18,2100,0.2,16.7,16.8,precipitacao
2008-08-18,2200,0.0,16.6,16.9,precipitacao
2008-08-18,2300,0.0,16.9,17.0,precipitacao
2008-09-05,0,0.0,12.3,12.5,precipitacao
2008-09-05,100,0.0,12.2,12.4,precipitacao
2008-09-05,200,0.0,11.9,12.3,precipitacao
2008-09-05,300,0.0,11.9,11.9,precipitacao
2008-09-05,400,0.0,11.9,12.0,precipitacao
2008-09-05,500,0.0,11.8,11.9,precipitacao
2008-09-05,600,0.0,11.4,11.8,precipitacao
2008-09-05,700,0.6,10.6,11.4,precipitacao
2008-09-05,800,2.4,9.9,10.6,precipitacao
2008-09-05,900,0.4,9.9,10.0,precipitacao
2008-09-05,1000,0.0,10.1,10.2,precipitacao
2008-09-05,1100,0.6,10.3,10.4,precipitacao
2008-09-05,1200,0.6,10.6,10.6,precipitacao
2008-09-05,1300,1.4,12.0,12.1,precipitacao
2008-09-05,1400,0.8,12.0,12.4,precipitacao
2008-09-05,1500,5.0,11.7,12.0,precipitacao
2008-09-05,1600,1.8,11.6,11.8,precipitacao
2008-09-05,1700,2.6,11.4,11.7,precipitacao
2008-09-05,1800,4.2,11.5,11.6,precipitacao
2008-09-05,1900,5.4,11.8,11.9,precipitacao
2008-09-05,2000,6.6,12.0,12.2,precipitacao
2008-09-05,2100,6.4,12.6,12.7,precipitacao
2008-09-05,2200,5.2,13.1,13.1,precipitacao
2008-09-05,2300,6.2,13.2,13.6,precipitacao
2009-01-03,0,1.4,19.2,19.3,precipitacao
2009-01-03,100,1.4,19.8,19.9,precipitacao
2009-01-03,200,0.8,19.4,19.9,precipitacao
2009-01-03,300,0.6,19.6,20.2,precipitacao
2009-01-03,400,1.8,19.1,19.7,precipitacao
2009-01-03,500,3.2,19.3,19.7,precipitacao
2009-01-03,600,5.2,19.6,19.6,precipitacao
2009-01-03,700,4.8,19.0,19.9,precipitacao
2009-01-03,800,3.4,18.8,19.2,precipitacao
2009-01-03,900,3.4,19.3,19.6,precipitacao
2009-01-03,1000,1.2,18.3,19.4,precipitacao
2009-01-03,1100,1.2,19.4,19.4,precipitacao
2009-01-03,1200,1.0,18.4,19.5,precipitacao
2009-01-03,1300,4.4,18.0,18.5,precipitacao
2009-01-03,1400,3.0,17.7,18.2,precipitacao
2009-01-03,1500,6.4,17.7,18.1,precipitacao
2009-01-03,1600,6.6,17.8,18.0,precipitacao
2009-01-03,1700,1.2,18.0,18.2,precipitacao
2009-01-03,1800,2.8,18.0,18.1,precipitacao
2009-01-03,1900,0.8,18.3,18.5,precipitacao
2009-01-03,2000,0.8,18.5,18.7,precipitacao
2009-01-03,2100,0.0,18.7,18.8,precipitacao
2009-01-03,2200,0.0,18.7,18.9,precipitacao
2009-01-03,2300,2.6,17.9,18.7,precipitacao
2009-08-08,0,3.2,13.2,13.5,precipitacao
2009-08-08,100,0.0,13.7,13.7,precipitacao
2009-08-08,200,0.0,13.9,13.9,precipitacao
2009-08-08,300,0.0,14.2,14.2,precipitacao
2009-08-08,400,0.0,14.2,14.2,precipitacao
2009-08-08,500,8.4,13.5,14.2,precipitacao
2009-08-08,600,2.8,13.4,13.7,precipitacao
2009-08-08,700,0.0,13.4,13.5,precipitacao
2009-08-08,800,7.8,13.6,13.6,precipitacao
2009-08-08,900,0.8,13.8,13.8,precipitacao
2009-08-08,1000,17.4,13.8,13.8,precipitacao
2009-08-08,1100,2.8,14.0,14.1,precipitacao
2009-08-08,1200,0.6,14.4,14.4,precipitacao
2009-08-08,1300,1.2,14.0,14.5,precipitacao
2009-08-08,1400,1.0,14.2,14.3,precipitacao
2009-08-08,1500,0.2,14.5,14.5,precipitacao
2009-08-08,1600,1.6,14.5,14.7,precipitacao
2009-08-08,1700,1.4,14.5,14.6,precipitacao
2009-08-08,1800,2.4,14.5,14.5,precipitacao
2009-08-08,1900,0.8,14.6,14.6,precipitacao
2009-08-08,2000,0.2,14.7,14.7,precipitacao
2009-08-08,2100,0.4,14.1,14.7,precipitacao
2009-08-08,2200,0.0,13.8,14.1,precipitacao
2009-08-08,2300,0.4,14.0,14.0,precipitacao
2009-08-09,0,1.6,14.5,14.5,precipitacao
2009-08-09,100,2.6,14.2,14.8,precipitacao
2009-08-09,200,3.6,14.1,14.2,precipitacao
2009-08-09,300,3.0,14.4,14.5,precipitacao
2009-08-09,400,3.8,14.3,14.6,precipitacao
2009-08-09,500,2.6,14.0,14.3,precipitacao
2009-08-09,600,1.4,14.0,14.0,precipitacao
2009-08-09,700,1.4,13.8,14.0,precipitacao
2009-08-09,800,1.2,13.8,13.8,precipitacao
2009-08-09,900,1.0,13.6,13.8,precipitacao
2009-08-09,1000,0.4,13.6,13.6,precipitacao
2009-08-09,1100,1.2,13.8,13.8,precipitacao
2009-08-09,1200,3.4,14.0,14.0,precipitacao
2009-08-09,1300,1.8,14.2,14.2,precipitacao
2009-08-09,1400,1.8,14.4,14.5,precipitacao
2009-08-09,1500,2.0,14.6,14.6,precipitacao
2009-08-09,1600,3.4,14.5,14.7,precipitacao
2009-08-09,1700,2.8,14.5,14.6,precipitacao
2009-08-09,1800,6.4,14.7,14.7,precipitacao
2009-08-09,1900,4.8,14.7,14.7,precipitacao
2009-08-09,2000,5.0,14.9,14.9,precipitacao
2009-08-09,2100,5.4,15.0,15.1,precipitacao
2009-08-09,2200,6.4,14.9,15.1,precipitacao
2009-08-09,2300,2.2,14.8,14.9,precipitacao
2009-09-27,0,0.4,18.0,18.4,precipitacao
2009-09-27,100,0.8,17.9,18.0,precipitacao
2009-09-27,200,2.2,18.0,18.0,precipitacao
2009-09-27,300,1.8,17.9,18.0,precipitacao
2009-09-27,400,3.6,17.9,18.3,precipitacao
2009-09-27,500,0.0,18.0,18.1,precipitacao
2009-09-27,600,2.4,18.0,18.6,precipitacao
2009-09-27,700,4.2,18.1,18.1,precipitacao
2009-09-27,800,11.2,17.9,18.6,precipitacao
2009-09-27,900,3.4,17.6,17.9,precipitacao
2009-09-27,1000,0.6,17.8,17.8,precipitacao
2009-09-27,1100,0.6,17.8,17.9,precipitacao
2009-09-27,1200,5.2,17.8,17.9,precipitacao
2009-09-27,1300,5.0,17.7,17.8,precipitacao
2009-09-27,1400,9.4,17.8,18.0,precipitacao
2009-09-27,1500,6.0,18.2,18.4,precipitacao
2009-09-27,1600,3.8,18.0,18.4,precipitacao
2009-09-27,1700,2.0,18.6,18.6,precipitacao
2009-09-27,1800,3.2,18.8,18.8,precipitacao
2009-09-27,1900,,,,precipitacao
2009-09-27,2000,,,,precipitacao
2009-09-27,2100,,,,precipitacao
2009-09-27,2200,,,,precipitacao
2009-09-27,2300,,,,precipitacao
2009-11-07,0,2.2,21.2,22.7,precipitacao
2009-11-07,100,0.4,22.4,22.4,precipitacao
2009-11-07,200,0.0,21.9,22.6,precipitacao
2009-11-07,300,0.0,21.3,22.4,precipitacao
2009-11-07,400,0.0,21.5,21.7,precipitacao
2009-11-07,500,0.0,21.8,22.0,precipitacao
2009-11-07,600,0.0,20.6,22.0,precipitacao
2009-11-07,700,0.0,21.0,21.0,precipitacao
2009-11-07,800,0.0,21.4,21.4,precipitacao
2009-11-07,900,0.0,21.5,21.7,precipitacao
2009-11-07,1000,0.0,22.9,23.1,precipitacao
2009-11-07,1100,0.0,23.3,23.4,precipitacao
2009-11-07,1200,0.0,27.3,27.8,precipitacao
2009-11-07,1300,0.0,23.6,27.4,precipitacao
2009-11-07,1400,0.0,24.4,25.4,precipitacao
2009-11-07,1500,13.4,22.0,24.4,precipitacao
2009-11-07,1600,45.8,22.0,22.4,precipitacao
2009-11-07,1700,7.6,21.7,22.5,precipitacao
2009-11-07,1800,7.6,21.1,21.8,precipitacao
2009-11-07,1900,6.8,20.9,21.4,precipitacao
2009-11-07,2000,2.2,20.6,20.9,precipitacao
2009-11-07,2100,0.8,20.6,20.8,precipitacao
2009-11-07,2200,0.4,20.5,20.6,precipitacao
2009-11-07,2300,0.2,20.1,20.5,precipitacao
2010-01-05,0,0.0,24.4,24.4,precipitacao
2010-01-05,100,0.0,24.7,24.9,precipitacao
2010-01-05,200,0.0,25.2,25.2,precipitacao
2010-01-05,300,2.4,24.3,25.2,precipitacao
2010-01-05,400,0.0,23.2,24.9,precipitacao
2010-01-05,500,0.0,23.2,23.6,precipitacao
2010-01-05,600,0.0,22.4,23.6,precipitacao
2010-01-05,700,0.0,22.4,22.8,precipitacao
2010-01-05,800,0.0,22.6,22.7,precipitacao
2010-01-05,900,0.0,22.0,22.9,precipitacao
2010-01-05,1000,0.0,23.0,23.1,precipitacao
2010-01-05,1100,0.0,23.1,24.3,precipitacao
2010-01-05,1200,1.2,26.3,26.7,precipitacao
2010-01-05,1300,16.2,25.4,26.5,precipitacao
2010-01-05,1400,18.6,25.2,25.4,precipitacao
2010-01-05,1500,10.6,24.7,25.3,precipitacao
2010-01-05,1600,8.0,24.9,25.1,precipitacao
2010-01-05,1700,6.4,25.2,25.3,precipitacao
2010-01-05,1800,0.0,29.3,29.9,precipitacao
2010-01-05,1900,0.0,30.4,30.5,precipitacao
2010-01-05,2000,0.0,29.8,30.4,precipitacao
2010-01-05,2100,0.0,26.3,30.2,precipitacao
2010-01-05,2200,0.0,28.6,28.9,precipitacao
2010-01-05,2300,0.0,28.4,28.6,precipitacao
2010-02-08,0,0.0,28.2,28.2,precipitacao
2010-02-08,100,0.0,27.9,28.1,precipitacao
2010-02-08,200,0.0,27.8,28.2,precipitacao
2010-02-08,300,0.0,27.8,28.0,precipitacao
2010-02-08,400,0.0,26.7,27.8,precipitacao
2010-02-08,500,0.0,26.5,26.7,precipitacao
2010-02-08,600,0.0,26.4,26.6,precipitacao
2010-02-08,700,0.0,27.2,27.2,precipitacao
2010-02-08,800,0.0,27.2,27.4,precipitacao
2010-02-08,900,0.0,26.4,27.2,precipitacao
2010-02-08,1000,0.0,26.8,26.9,precipitacao
2010-02-08,1100,56.0,22.5,26.8,precipitacao
2010-02-08,1200,3.2,22.7,22.7,precipitacao
2010-02-08,1300,2.4,23.3,23.3,precipitacao
2010-02-08,1400,0.0,24.6,24.6,precipitacao
2010-02-08,1500,0.0,25.7,25.8,precipitacao
2010-02-08,1600,0.0,28.3,28.4,precipitacao
2010-02-08,1700,0.0,29.1,29.1,precipitacao
2010-02-08,1800,0.0,29.8,30.3,precipitacao
2010-02-08,1900,0.2,27.9,29.9,precipitacao
2010-02-08,2000,0.0,27.1,27.9,precipitacao
2010-02-08,2100,0.0,26.5,27.1,precipitacao
2010-02-08,2200,0.0,26.2,26.6,precipitacao
2010-02-08,2300,0.0,25.9,26.2,precipitacao
2010-05-19,0,1.0,19.4,19.7,precipitacao
2010-05-19,100,1.6,19.3,19.4,precipitacao
2010-05-19,200,7.2,19.4,19.5,precipitacao
2010-05-19,300,65.6,14.7,19.5,precipitacao
2010-05-19,400,37.8,13.8,14.7,precipitacao
2010-05-19,500,26.4,13.7,14.0,precipitacao
2010-05-19,600,6.2,14.5,14.6,precipitacao
2010-05-19,700,0.2,15.1,15.1,precipitacao
2010-05-19,800,0.0,15.0,15.2,precipitacao
2010-05-19,900,0.0,15.4,15.4,precipitacao
2010-05-19,1000,0.0,14.9,15.4,precipitacao
2010-05-19,1100,0.0,14.9,15.0,precipitacao
2010-05-19,1200,0.0,15.1,15.1,precipitacao
2010-05-19,1300,0.0,16.5,16.5,precipitacao
2010-05-19,1400,0.0,17.3,17.5,precipitacao
2010-05-19,1500,0.0,18.0,18.5,precipitacao
2010-05-19,1600,0.0,18.6,18.8,precipitacao
2010-05-19,1700,0.0,17.3,18.7,precipitacao
2010-05-19,1800,0.0,16.7,17.3,precipitacao
2010-05-19,1900,0.0,16.4,16.8,precipitacao
2010-05-19,2000,0.0,16.0,16.4,precipitacao
2010-05-19,2100,0.0,15.5,16.0,precipitacao
2010-05-19,2200,0.0,15.6,15.7,precipitacao
2010-05-19,2300,0.0,15.3,15.5,precipitacao
2010-06-19,0,0.2,18.7,18.9,precipitacao
2010-06-19,100,1.0,18.0,18.7,precipitacao
2010-06-19,200,0.4,18.1,18.1,precipitacao
2010-06-19,300,3.6,17.8,18.5,precipitacao
2010-06-19,400,4.8,17.5,17.8,precipitacao
2010-06-19,500,0.6,17.6,17.7,precipitacao
2010-06-19,600,1.6,18.1,18.1,precipitacao
2010-06-19,700,0.6,18.3,18.3,precipitacao
2010-06-19,800,3.6,18.6,18.6,precipitacao
2010-06-19,900,0.4,18.4,18.6,precipitacao
2010-06-19,1000,9.4,18.3,18.5,precipitacao
2010-06-19,1100,6.4,18.8,18.8,precipitacao
2010-06-19,1200,6.4,18.3,18.8,precipitacao
2010-06-19,1300,1.8,18.3,18.4,precipitacao
2010-06-19,1400,1.8,18.4,18.5,precipitacao
2010-06-19,1500,10.2,18.2,18.4,precipitacao
2010-06-19,1600,0.2,18.4,18.5,precipitacao
2010-06-19,1700,1.6,19.0,19.1,precipitacao
2010-06-19,1800,0.2,19.4,19.4,precipitacao
2010-06-19,1900,0.0,19.1,19.5,precipitacao
2010-06-19,2000,2.2,18.9,19.1,precipitacao
2010-06-19,2100,4.2,18.6,18.9,precipitacao
2010-06-19,2200,0.0,18.8,18.8,precipitacao
2010-06-19,2300,0.2,17.8,18.9,precipitacao
2010-06-26,0,5.8,16.2,16.6,precipitacao
2010-06-26,100,8.8,16.0,16.4,precipitacao
2010-06-26,200,8.2,16.1,16.2,precipitacao
2010-06-26,300,2.2,16.2,16.3,precipitacao
2010-06-26,400,1.6,16.4,16.5,precipitacao
2010-06-26,500,0.4,16.6,16.6,precipitacao
2010-06-26,600,3.2,16.7,16.7,precipitacao
2010-06-26,700,1.4,16.8,16.9,precipitacao
2010-06-26,800,0.8,17.1,17.1,precipitacao
2010-06-26,900,0.0,17.3,17.3,precipitacao
2010-06-26,1000,0.2,17.3,17.3,precipitacao
2010-06-26,1100,1.2,16.8,17.3,precipitacao
2010-06-26,1200,4.6,16.7,16.9,precipitacao
2010-06-26,1300,9.8,16.7,16.8,precipitacao
2010-06-26,1400,1.0,16.8,16.8,precipitacao
2010-06-26,1500,0.8,16.9,17.0,precipitacao
2010-06-26,1600,0.2,16.9,17.0,precipitacao
2010-06-26,1700,0.8,17.2,17.2,precipitacao
2010-06-26,1800,0.6,17.5,17.5,precipitacao
2010-06-26,1900,0.0,17.6,17.7,precipitacao
2010-06-26,2000,0.0,17.6,17.6,precipitacao
2010-06-26,2100,0.0,17.8,17.8,precipitacao
2010-06-26,2200,0.0,17.8,17.8,precipitacao
2010-06-26,2300,0.0,17.8,17.9,precipitacao
2010-11-25,0,0.0,20.0,20.1,precipitacao
2010-11-25,100,0.0,20.0,20.1,precipitacao
2010-11-25,200,0.0,19.9,20.0,precipitacao
2010-11-25,300,0.0,20.0,20.1,precipitacao
2010-11-25,400,0.0,20.3,20.4,precipitacao
2010-11-25,500,0.4,20.1,20.6,precipitacao
2010-11-25,600,1.6,19.5,20.1,precipitacao
2010-11-25,700,1.0,19.6,19.8,precipitacao
2010-11-25,800,9.4,19.0,19.7,precipitacao
2010-11-25,900,35.8,19.0,19.0,precipitacao
2010-11-25,1000,0.8,18.9,19.3,precipitacao
2010-11-25,1100,1.0,19.6,19.7,precipitacao
2010-11-25,1200,0.4,20.0,20.0,precipitacao
2010-11-25,1300,0.2,20.6,20.6,precipitacao
2010-11-25,1400,0.0,21.2,21.4,precipitacao
2010-11-25,1500,0.0,21.5,21.9,precipitacao
2010-11-25,1600,0.0,23.2,23.6,precipitacao
2010-11-25,1700,0.0,22.4,23.6,precipitacao
2010-11-25,1800,0.0,22.0,22.9,precipitacao
2010-11-25,1900,0.0,22.0,22.0,precipitacao
2010-11-25,2000,0.0,21.5,22.2,precipitacao
2010-11-25,2100,0.0,21.2,21.5,precipitacao
2010-11-25,2200,0.0,20.8,21.3,precipitacao
2010-11-25,2300,0.0,20.6,20.9,precipitacao
2011-07-14,0,0.0,13.2,13.5,precipitacao
2011-07-14,100,0.2,13.2,13.2,precipitacao
2011-07-14,200,0.6,13.2,13.2,precipitacao
2011-07-14,300,2.4,13.1,13.2,precipitacao
2011-07-14,400,0.8,13.1,13.2,precipitacao
2011-07-14,500,0.0,13.0,13.2,precipitacao
2011-07-14,600,2.0,13.2,13.2,precipitacao
2011-07-14,700,0.6,13.2,13.2,precipitacao
2011-07-14,800,3.0,13.4,13.4,precipitacao
2011-07-14,900,6.2,13.7,13.7,precipitacao
2011-07-14,1000,6.2,13.9,13.9,precipitacao
2011-07-14,1100,1.8,13.6,13.9,precipitacao
2011-07-14,1200,1.4,13.8,13.9,precipitacao
2011-07-14,1300,2.2,13.9,13.9,precipitacao
2011-07-14,1400,1.4,13.9,14.0,precipitacao
2011-07-14,1500,4.0,14.0,14.0,precipitacao
2011-07-14,1600,3.0,14.2,14.3,precipitacao
2011-07-14,1700,7.4,14.5,14.8,precipitacao
2011-07-14,1800,4.8,14.9,14.9,precipitacao
2011-07-14,1900,3.8,15.0,15.0,precipitacao
2011-07-14,2000,3.2,14.9,15.0,precipitacao
2011-07-14,2100,5.4,14.8,15.1,precipitacao
2011-07-14,2200,3.2,14.5,14.9,precipitacao
2011-07-14,2300,6.0,14.8,14.9,precipitacao
2011-12-31,0,0.0,22.9,23.1,precipitacao
2011-12-31,100,0.0,22.9,23.0,precipitacao
2011-12-31,200,0.0,22.4,22.9,precipitacao
2011-12-31,300,0.0,21.7,22.5,precipitacao
2011-12-31,400,0.0,22.5,22.7,precipitacao
2011-12-31,500,0.0,22.6,22.7,precipitacao
2011-12-31,600,0.2,21.3,22.5,precipitacao
2011-12-31,700,0.0,22.1,22.3,precipitacao
2011-12-31,800,0.0,22.5,22.6,precipitacao
2011-12-31,900,0.2,21.7,22.5,precipitacao
2011-12-31,1000,0.8,21.5,21.8,precipitacao
2011-12-31,1100,0.2,21.2,21.8,precipitacao
2011-12-31,1200,0.0,21.0,21.4,precipitacao
2011-12-31,1300,0.2,20.8,21.4,precipitacao
2011-12-31,1400,4.8,20.0,21.1,precipitacao
2011-12-31,1500,10.8,18.5,20.5,precipitacao
2011-12-31,1600,11.4,19.2,19.3,precipitacao
2011-12-31,1700,7.6,18.6,19.8,precipitacao
2011-12-31,1800,8.0,18.9,19.1,precipitacao
2011-12-31,1900,5.4,18.5,19.3,precipitacao
2011-12-31,2000,2.4,18.3,18.8,precipitacao
2011-12-31,2100,1.0,19.1,19.1,precipitacao
2011-12-31,2200,0.0,19.9,20.0,precipitacao
2011-12-31,2300,0.0,20.0,20.1,precipitacao
2012-01-14,0,1.4,21.8,21.8,precipitacao
2012-01-14,100,0.8,21.9,21.9,precipitacao
2012-01-14,200,0.6,21.8,22.0,precipitacao
2012-01-14,300,2.0,21.6,21.9,precipitacao
2012-01-14,400,2.6,21.1,21.7,precipitacao
2012-01-14,500,2.8,21.5,21.5,precipitacao
2012-01-14,600,4.8,21.2,21.5,precipitacao
2012-01-14,700,14.4,21.2,21.4,precipitacao
2012-01-14,800,5.6,21.2,21.4,precipitacao
2012-01-14,900,3.4,21.3,21.3,precipitacao
2012-01-14,1000,2.6,21.3,21.4,precipitacao
2012-01-14,1100,0.0,21.9,22.0,precipitacao
2012-01-14,1200,2.8,21.8,22.0,precipitacao
2012-01-14,1300,1.0,22.1,22.5,precipitacao
2012-01-14,1400,1.8,21.7,22.2,precipitacao
2012-01-14,1500,7.8,21.7,21.9,precipitacao
2012-01-14,1600,8.6,21.4,21.8,precipitacao
2012-01-14,1700,12.8,21.2,21.6,precipitacao
2012-01-14,1800,6.0,21.7,21.7,precipitacao
2012-01-14,1900,0.8,21.5,21.8,precipitacao
2012-01-14,2000,1.4,21.5,21.6,precipitacao
2012-01-14,2100,1.2,21.0,21.5,precipitacao
2012-01-14,2200,1.2,21.0,21.2,precipitacao
2012-01-14,2300,0.6,21.0,21.1,precipitacao
2012-03-14,0,0.2,22.4,24.6,precipitacao
2012-03-14,100,0.2,22.5,22.8,precipitacao
2012-03-14,200,0.6,22.1,22.6,precipitacao
2012-03-14,300,0.8,22.2,22.4,precipitacao
2012-03-14,400,1.0,22.1,22.2,precipitacao
2012-03-14,500,4.6,22.0,22.1,precipitacao
2012-03-14,600,23.0,22.0,22.0,precipitacao
2012-03-14,700,12.4,22.4,22.4,precipitacao
2012-03-14,800,0.0,22.6,22.6,precipitacao
2012-03-14,900,0.0,22.6,22.7,precipitacao
2012-03-14,1000,0.0,22.9,22.9,precipitacao
2012-03-14,1100,0.0,23.3,23.4,precipitacao
2012-03-14,1200,0.0,24.3,24.3,precipitacao
2012-03-14,1300,1.4,24.1,24.7,precipitacao
2012-03-14,1400,2.0,22.6,24.1,precipitacao
2012-03-14,1500,2.4,22.9,23.2,precipitacao
2012-03-14,1600,2.2,22.8,23.1,precipitacao
2012-03-14,1700,1.6,23.0,23.2,precipitacao
2012-03-14,1800,1.2,22.8,23.2,precipitacao
2012-03-14,1900,0.4,22.3,22.8,precipitacao
2012-03-14,2000,0.6,22.6,22.6,precipitacao
2012-03-14,2100,0.2,22.7,22.8,precipitacao
2012-03-14,2200,0.2,22.5,22.8,precipitacao
2012-03-14,2300,0.2,22.4,22.5,precipitacao
2012-04-26,0,0.0,18.8,18.8,precipitacao
2012-04-26,100,0.0,19.1,19.1,precipitacao
2012-04-26,200,0.0,18.6,19.3,precipitacao
2012-04-26,300,0.0,18.8,18.8,precipitacao
2012-04-26,400,0.0,18.9,18.9,precipitacao
2012-04-26,500,0.0,18.8,18.9,precipitacao
2012-04-26,600,0.4,17.9,19.0,precipitacao
2012-04-26,700,7.6,17.4,18.0,precipitacao
2012-04-26,800,5.6,16.7,17.5,precipitacao
2012-04-26,900,0.6,16.6,16.7,precipitacao
2012-04-26,1000,1.0,17.4,17.4,precipitacao
2012-04-26,1100,0.0,18.2,18.2,precipitacao
2012-04-26,1200,0.0,18.8,18.9,precipitacao
2012-04-26,1300,0.0,18.9,19.1,precipitacao
2012-04-26,1400,0.2,19.7,19.7,precipitacao
2012-04-26,1500,0.0,20.4,20.4,precipitacao
2012-04-26,1600,0.0,20.3,20.6,precipitacao
2012-04-26,1700,0.0,20.3,20.6,precipitacao
2012-04-26,1800,0.2,19.8,20.3,precipitacao
2012-04-26,1900,3.2,18.6,19.8,precipitacao
2012-04-26,2000,21.2,18.3,18.6,precipitacao
2012-04-26,2100,6.8,18.0,18.4,precipitacao
2012-04-26,2200,12.0,17.8,18.4,precipitacao
2012-04-26,2300,15.4,17.0,17.8,precipitacao
2012-07-06,0,2.2,14.1,14.2,precipitacao
2012-07-06,100,1.4,13.8,14.1,precipitacao
2012-07-06,200,1.4,14.5,14.5,precipitacao
2012-07-06,300,1.4,14.8,14.8,precipitacao
2012-07-06,400,2.2,14.5,14.9,precipitacao
2012-07-06,500,6.8,13.8,14.5,precipitacao
2012-07-06,600,6.8,13.6,13.8,precipitacao
2012-07-06,700,4.8,13.7,13.7,precipitacao
2012-07-06,800,10.6,14.0,14.0,precipitacao
2012-07-06,900,11.0,14.7,14.7,precipitacao
2012-07-06,1000,10.8,15.5,15.7,precipitacao
2012-07-06,1100,5.2,15.9,15.9,precipitacao
2012-07-06,1200,3.0,16.1,16.2,precipitacao
2012-07-06,1300,4.2,15.9,16.2,precipitacao
2012-07-06,1400,6.2,16.0,16.2,precipitacao
2012-07-06,1500,5.4,15.9,16.1,precipitacao
2012-07-06,1600,9.2,15.8,16.0,precipitacao
2012-07-06,1700,6.8,16.0,16.0,precipitacao
2012-07-06,1800,3.6,15.8,16.0,precipitacao
2012-07-06,1900,3.6,15.8,15.9,precipitacao
2012-07-06,2000,6.4,15.1,16.0,precipitacao
2012-07-06,2100,1.0,14.6,15.1,precipitacao
2012-07-06,2200,2.0,13.0,14.6,precipitacao
2012-07-06,2300,2.4,12.5,13.0,precipitacao
2012-12-28,0,2.0,19.2,19.4,precipitacao
2012-12-28,100,1.6,19.1,19.6,precipitacao
2012-12-28,200,3.6,19.1,19.2,precipitacao
2012-12-28,300,7.2,18.8,19.6,precipitacao
2012-12-28,400,7.8,18.7,19.2,precipitacao
2012-12-28,500,6.2,18.3,18.9,precipitacao
2012-12-28,600,4.0,18.4,18.7,precipitacao
2012-12-28,700,7.0,17.9,18.7,precipitacao
2012-12-28,800,4.6,18.8,19.1,precipitacao
2012-12-28,900,4.6,19.1,19.4,precipitacao
2012-12-28,1000,2.2,19.4,19.6,precipitacao
2012-12-28,1100,2.2,19.5,19.8,precipitacao
2012-12-28,1200,1.4,19.6,20.1,precipitacao
2012-12-28,1300,0.4,19.5,20.1,precipitacao
2012-12-28,1400,2.4,19.4,19.6,precipitacao
2012-12-28,1500,0.8,20.1,20.1,precipitacao
2012-12-28,1600,0.0,20.5,20.7,precipitacao
2012-12-28,1700,0.4,20.1,21.3,precipitacao
2012-12-28,1800,0.4,20.3,20.7,precipitacao
2012-12-28,1900,0.8,20.0,20.6,precipitacao
2012-12-28,2000,0.0,21.3,21.7,precipitacao
2012-12-28,2100,0.0,21.5,21.6,precipitacao
2012-12-28,2200,0.0,21.3,21.7,precipitacao
2012-12-28,2300,0.2,21.7,21.7,precipitacao
2013-01-08,0,13.2,22.5,24.8,precipitacao
2013-01-08,100,2.6,22.7,22.7,precipitacao
2013-01-08,200,1.0,23.0,23.2,precipitacao
2013-01-08,300,0.6,23.5,23.6,precipitacao
2013-01-08,400,1.6,23.2,23.5,precipitacao
2013-01-08,500,1.0,23.3,23.5,precipitacao
2013-01-08,600,0.6,23.2,23.5,precipitacao
2013-01-08,700,0.4,22.7,23.5,precipitacao
2013-01-08,800,15.4,22.6,22.7,precipitacao
2013-01-08,900,13.6,22.3,22.6,precipitacao
2013-01-08,1000,7.8,22.5,22.5,precipitacao
2013-01-08,1100,0.0,23.5,23.6,precipitacao
2013-01-08,1200,0.0,23.8,24.0,precipitacao
2013-01-08,1300,0.0,23.5,24.0,precipitacao
2013-01-08,1400,0.6,24.9,24.9,precipitacao
2013-01-08,1500,0.4,26.1,26.1,precipitacao
2013-01-08,1600,0.2,26.9,27.0,precipitacao
2013-01-08,1700,0.0,26.7,27.3,precipitacao
2013-01-08,1800,0.0,27.7,28.3,precipitacao
2013-01-08,1900,0.0,25.1,27.7,precipitacao
2013-01-08,2000,0.0,26.2,26.5,precipitacao
2013-01-08,2100,0.0,26.2,26.9,precipitacao
2013-01-08,2200,1.4,25.3,26.3,precipitacao
2013-01-08,2300,0.0,24.0,25.3,precipitacao
2013-03-20,0,0.0,22.4,22.5,precipitacao
2013-03-20,100,0.0,22.1,22.5,precipitacao
2013-03-20,200,0.2,21.5,22.1,precipitacao
2013-03-20,300,1.6,19.8,21.6,precipitacao
2013-03-20,400,2.8,19.5,20.2,precipitacao
2013-03-20,500,3.0,20.3,20.7,precipitacao
2013-03-20,600,4.4,20.4,20.4,precipitacao
2013-03-20,700,3.8,20.2,20.5,precipitacao
2013-03-20,800,2.0,20.3,20.6,precipitacao
2013-03-20,900,4.4,19.7,20.4,precipitacao
2013-03-20,1000,3.6,20.6,20.7,precipitacao
2013-03-20,1100,0.6,21.0,21.1,precipitacao
2013-03-20,1200,0.2,20.6,21.6,precipitacao
2013-03-20,1300,0.2,21.0,21.1,precipitacao
2013-03-20,1400,1.6,20.8,21.2,precipitacao
2013-03-20,1500,5.4,20.7,21.0,precipitacao
2013-03-20,1600,2.6,21.3,21.3,precipitacao
2013-03-20,1700,0.4,21.9,22.3,precipitacao
2013-03-20,1800,2.0,20.9,22.1,precipitacao
2013-03-20,1900,0.8,21.8,22.0,precipitacao
2013-03-20,2000,4.8,21.2,21.8,precipitacao
2013-03-20,2100,9.6,20.9,21.3,precipitacao
2013-03-20,2200,10.0,20.3,20.9,precipitacao
2013-03-20,2300,13.8,20.0,20.4,precipitacao
2013-08-10,0,1.6,11.9,12.6,precipitacao
2013-08-10,100,3.4,11.2,11.9,precipitacao
2013-08-10,200,1.4,11.0,11.2,precipitacao
2013-08-10,300,2.4,11.1,11.3,precipitacao
2013-08-10,400,1.8,11.4,11.4,precipitacao
2013-08-10,500,2.0,12.5,12.5,precipitacao
2013-08-10,600,0.8,12.5,12.6,precipitacao
2013-08-10,700,1.4,12.2,12.6,precipitacao
2013-08-10,800,1.0,12.9,12.9,precipitacao
2013-08-10,900,0.8,12.3,13.1,precipitacao
2013-08-10,1000,0.8,12.4,12.8,precipitacao
2013-08-10,1100,2.4,12.6,12.7,precipitacao
2013-08-10,1200,3.2,12.7,12.8,precipitacao
2013-08-10,1300,2.6,12.9,12.9,precipitacao
2013-08-10,1400,3.4,13.3,13.4,precipitacao
2013-08-10,1500,2.2,13.0,13.7,precipitacao
2013-08-10,1600,0.8,13.6,13.8,precipitacao
2013-08-10,1700,1.8,13.6,13.6,precipitacao
2013-08-10,1800,1.8,13.5,13.8,precipitacao
2013-08-10,1900,2.8,13.4,13.7,precipitacao
2013-08-10,2000,4.6,13.4,13.4,precipitacao
2013-08-10,2100,3.6,13.3,13.6,precipitacao
2013-08-10,2200,5.2,13.0,13.3,precipitacao
2013-08-10,2300,4.4,12.9,13.0,precipitacao
2013-08-24,0,0.2,7.8,7.9,precipitacao
2013-08-24,100,0.2,7.8,7.9,precipitacao
2013-08-24,200,0.0,7.7,7.9,precipitacao
2013-08-24,300,0.0,7.9,8.1,precipitacao
2013-08-24,400,2.8,7.7,7.9,precipitacao
2013-08-24,500,0.6,8.1,8.1,precipitacao
2013-08-24,600,1.4,7.8,8.1,precipitacao
2013-08-24,700,0.4,8.1,8.1,precipitacao
2013-08-24,800,0.0,8.6,8.6,precipitacao
2013-08-24,900,1.0,8.7,8.8,precipitacao
2013-08-24,1000,3.8,9.0,9.0,precipitacao
2013-08-24,1100,2.4,9.4,9.4,precipitacao
2013-08-24,1200,1.8,9.9,9.9,precipitacao
2013-08-24,1300,0.2,10.4,10.5,precipitacao
2013-08-24,1400,2.0,10.4,10.6,precipitacao
2013-08-24,1500,2.0,11.1,11.1,precipitacao
2013-08-24,1600,3.2,10.8,11.3,precipitacao
2013-08-24,1700,2.6,11.2,11.3,precipitacao
2013-08-24,1800,3.2,11.5,11.5,precipitacao
2013-08-24,1900,4.4,11.6,11.6,precipitacao
2013-08-24,2000,6.0,11.8,11.9,precipitacao
2013-08-24,2100,6.4,12.4,12.4,precipitacao
2013-08-24,2200,4.4,13.6,13.6,precipitacao
2013-08-24,2300,3.8,13.7,13.7,precipitacao
2013-08-25,0,5.0,13.6,13.7,precipitacao
2013-08-25,100,4.0,13.7,13.9,precipitacao
2013-08-25,200,2.2,13.6,13.7,precipitacao
2013-08-25,300,3.6,13.8,13.8,precipitacao
2013-08-25,400,6.4,13.6,13.8,precipitacao
2013-08-25,500,3.0,13.6,13.6,precipitacao
2013-08-25,600,1.8,13.6,13.7,precipitacao
2013-08-25,700,2.8,13.6,13.7,precipitacao
2013-08-25,800,2.0,13.6,13.7,precipitacao
2013-08-25,900,4.6,13.5,13.6,precipitacao
2013-08-25,1000,3.6,13.2,13.5,precipitacao
2013-08-25,1100,3.6,13.4,13.4,precipitacao
2013-08-25,1200,2.4,13.1,13.5,precipitacao
2013-08-25,1300,2.4,13.1,13.2,precipitacao
2013-08-25,1400,2.2,13.3,13.3,precipitacao
2013-08-25,1500,2.2,12.9,13.3,precipitacao
2013-08-25,1600,2.4,13.0,13.2,precipitacao
2013-08-25,1700,2.6,12.9,13.2,precipitacao
2013-08-25,1800,2.0,12.5,13.2,precipitacao
2013-08-25,1900,2.4,12.8,13.1,precipitacao
2013-08-25,2000,1.8,12.7,13.0,precipitacao
2013-08-25,2100,2.6,12.4,12.8,precipitacao
2013-08-25,2200,3.0,12.1,12.5,precipitacao
2013-08-25,2300,2.2,12.3,12.4,precipitacao
2013-10-23,0,0.0,20.2,20.2,precipitacao
2013-10-23,100,0.0,20.1,20.2,precipitacao
2013-10-23,200,0.0,20.1,20.2,precipitacao
2013-10-23,300,0.0,19.9,20.2,precipitacao
2013-10-23,400,0.0,19.9,20.0,precipitacao
2013-10-23,500,0.0,19.8,20.0,precipitacao
2013-10-23,600,0.0,19.5,19.9,precipitacao
2013-10-23,700,0.0,19.4,19.6,precipitacao
2013-10-23,800,0.0,19.5,19.5,precipitacao
2013-10-23,900,0.0,19.2,19.6,precipitacao
2013-10-23,1000,7.0,18.0,19.2,precipitacao
2013-10-23,1100,2.8,18.5,18.5,precipitacao
2013-10-23,1200,8.6,18.9,18.9,precipitacao
2013-10-23,1300,4.2,19.0,19.1,precipitacao
2013-10-23,1400,4.6,19.1,19.2,precipitacao
2013-10-23,1500,10.0,19.4,19.4,precipitacao
2013-10-23,1600,0.4,19.9,20.0,precipitacao
2013-10-23,1700,0.0,19.8,20.4,precipitacao
2013-10-23,1800,0.0,20.0,20.1,precipitacao
2013-10-23,1900,0.0,20.2,20.2,precipitacao
2013-10-23,2000,0.0,20.2,20.2,precipitacao
2013-10-23,2100,7.6,20.2,20.4,precipitacao
2013-10-23,2200,6.8,20.0,20.2,precipitacao
2013-10-23,2300,1.4,20.2,20.2,precipitacao
2013-11-11,0,12.6,19.9,20.0,precipitacao
2013-11-11,100,0.6,20.3,20.3,precipitacao
2013-11-11,200,2.0,20.0,20.3,precipitacao
2013-11-11,300,6.6,19.8,20.0,precipitacao
2013-11-11,400,3.6,19.5,19.9,precipitacao
2013-11-11,500,3.0,19.6,19.6,precipitacao
2013-11-11,600,3.4,19.7,19.8,precipitacao
2013-11-11,700,5.4,19.7,19.7,precipitacao
2013-11-11,800,21.2,19.3,19.7,precipitacao
2013-11-11,900,0.2,19.6,19.7,precipitacao
2013-11-11,1000,0.4,19.2,19.8,precipitacao
2013-11-11,1100,29.0,18.9,19.2,precipitacao
2013-11-11,1200,12.6,19.2,19.2,precipitacao
2013-11-11,1300,15.0,19.1,19.2,precipitacao
2013-11-11,1400,9.0,19.3,19.3,precipitacao
2013-11-11,1500,1.2,19.7,19.7,precipitacao
2013-11-11,1600,1.8,19.8,20.2,precipitacao
2013-11-11,1700,0.8,19.5,19.8,precipitacao
2013-11-11,1800,0.2,19.9,20.1,precipitacao
2013-11-11,1900,3.2,20.5,21.0,precipitacao
2013-11-11,2000,3.8,20.4,20.5,precipitacao
2013-11-11,2100,3.2,20.2,20.4,precipitacao
2013-11-11,2200,3.6,20.1,20.2,precipitacao
2013-11-11,2300,4.0,20.2,20.2,precipitacao
2014-02-13,0,2.0,25.1,26.9,precipitacao
2014-02-13,100,3.4,24.9,25.1,precipitacao
2014-02-13,200,0.2,24.9,25.3,precipitacao
2014-02-13,300,0.2,24.7,25.2,precipitacao
2014-02-13,400,0.0,24.5,24.7,precipitacao
2014-02-13,500,0.0,23.9,24.7,precipitacao
2014-02-13,600,0.0,23.6,23.9,precipitacao
2014-02-13,700,0.0,23.4,23.6,precipitacao
2014-02-13,800,0.0,23.3,23.5,precipitacao
2014-02-13,900,0.0,23.7,23.7,precipitacao
2014-02-13,1000,0.0,24.6,24.7,precipitacao
2014-02-13,1100,0.0,25.1,25.3,precipitacao
2014-02-13,1200,1.0,25.7,25.7,precipitacao
2014-02-13,1300,0.0,26.2,26.7,precipitacao
2014-02-13,1400,0.0,26.5,26.8,precipitacao
2014-02-13,1500,0.0,25.7,26.8,precipitacao
2014-02-13,1600,0.2,25.5,26.4,precipitacao
2014-02-13,1700,0.2,25.3,25.5,precipitacao
2014-02-13,1800,3.8,23.7,25.3,precipitacao
2014-02-13,1900,15.6,21.6,24.0,precipitacao
2014-02-13,2000,33.4,21.2,22.1,precipitacao
2014-02-13,2100,4.8,22.1,22.2,precipitacao
2014-02-13,2200,0.0,23.2,23.2,precipitacao
2014-02-13,2300,0.2,22.7,23.4,precipitacao
2014-03-18,0,0.0,23.7,23.7,precipitacao
2014-03-18,100,0.0,23.4,23.7,precipitacao
2014-03-18,200,0.0,23.6,23.6,precipitacao
2014-03-18,300,0.0,23.8,23.8,precipitacao
2014-03-18,400,0.0,23.7,23.8,precipitacao
2014-03-18,500,0.2,23.4,23.7,precipitacao
2014-03-18,600,0.0,23.2,23.4,precipitacao
2014-03-18,700,0.0,23.1,23.2,precipitacao
2014-03-18,800,0.0,23.2,23.2,precipitacao
2014-03-18,900,0.0,23.4,23.4,precipitacao
2014-03-18,1000,39.2,22.0,23.6,precipitacao
2014-03-18,1100,54.8,22.1,22.1,precipitacao
2014-03-18,1200,4.0,22.6,23.0,precipitacao
2014-03-18,1300,0.4,23.3,23.4,precipitacao
2014-03-18,1400,0.2,23.2,23.4,precipitacao
2014-03-18,1500,0.4,23.1,23.4,precipitacao
2014-03-18,1600,0.0,23.3,23.6,precipitacao
2014-03-18,1700,1.0,22.2,23.3,precipitacao
2014-03-18,1800,0.0,22.9,23.0,precipitacao
2014-03-18,1900,0.0,23.4,23.4,precipitacao
2014-03-18,2000,0.0,22.3,23.5,precipitacao
2014-03-18,2100,0.0,22.3,22.6,precipitacao
2014-03-18,2200,0.0,22.1,22.5,precipitacao
2014-03-18,2300,0.2,21.6,22.2,precipitacao
2014-07-04,0,0.0,17.5,17.5,precipitacao
2014-07-04,100,0.0,17.6,17.6,precipitacao
2014-07-04,200,0.0,17.5,17.6,precipitacao
2014-07-04,300,2.8,17.9,18.3,precipitacao
2014-07-04,400,4.6,18.0,18.0,precipitacao
2014-07-04,500,7.8,18.1,18.1,precipitacao
2014-07-04,600,6.0,17.5,18.1,precipitacao
2014-07-04,700,5.6,17.3,17.7,precipitacao
2014-07-04,800,14.4,17.3,17.6,precipitacao
2014-07-04,900,1.2,17.5,17.5,precipitacao
2014-07-04,1000,1.4,17.4,17.5,precipitacao
2014-07-04,1100,6.8,17.4,17.5,precipitacao
2014-07-04,1200,1.4,18.0,18.0,precipitacao
2014-07-04,1300,2.8,17.8,18.2,precipitacao
2014-07-04,1400,3.0,18.1,18.1,precipitacao
2014-07-04,1500,0.0,18.3,18.3,precipitacao
2014-07-04,1600,0.0,18.7,18.7,precipitacao
2014-07-04,1700,0.0,19.6,19.8,precipitacao
2014-07-04,1800,0.0,19.9,19.9,precipitacao
2014-07-04,1900,0.0,19.9,20.5,precipitacao
2014-07-04,2000,0.2,21.2,21.2,precipitacao
2014-07-04,2100,0.6,18.7,21.5,precipitacao
2014-07-04,2200,1.2,19.5,19.5,precipitacao
2014-07-04,2300,0.2,19.8,20.4,precipitacao
2014-09-11,0,3.4,15.3,15.6,precipitacao
2014-09-11,100,2.0,15.1,15.4,precipitacao
2014-09-11,200,2.8,15.0,15.2,precipitacao
2014-09-11,300,2.6,14.8,15.0,precipitacao
2014-09-11,400,0.8,14.9,15.1,precipitacao
2014-09-11,500,6.0,14.5,14.9,precipitacao
2014-09-11,600,7.6,14.2,14.5,precipitacao
2014-09-11,700,10.8,13.9,14.2,precipitacao
2014-09-11,800,4.0,14.7,14.7,precipitacao
2014-09-11,900,5.0,14.4,14.7,precipitacao
2014-09-11,1000,3.0,14.4,14.4,precipitacao
2014-09-11,1100,1.0,14.3,14.4,precipitacao
2014-09-11,1200,1.6,14.3,14.6,precipitacao
2014-09-11,1300,1.8,14.7,14.7,precipitacao
2014-09-11,1400,1.0,14.9,15.1,precipitacao
2014-09-11,1500,0.2,15.0,15.1,precipitacao
2014-09-11,1600,2.6,15.2,15.7,precipitacao
2014-09-11,1700,0.6,15.3,15.4,precipitacao
2014-09-11,1800,0.8,15.3,15.6,precipitacao
2014-09-11,1900,0.2,14.6,15.3,precipitacao
2014-09-11,2000,0.8,15.0,15.2,precipitacao
2014-09-11,2100,0.2,15.4,15.6,precipitacao
2014-09-11,2200,0.0,15.9,15.9,precipitacao
2014-09-11,2300,0.0,15.9,16.5,precipitacao
2014-10-16,0,0.0,20.3,20.3,precipitacao
2014-10-16,100,0.0,20.5,20.5,precipitacao
2014-10-16,200,0.0,20.5,20.6,precipitacao
2014-10-16,300,0.0,20.5,20.5,precipitacao
2014-10-16,400,0.0,20.4,20.5,precipitacao
2014-10-16,500,0.0,20.3,20.4,precipitacao
2014-10-16,600,0.0,20.2,20.5,precipitacao
2014-10-16,700,0.8,20.1,20.2,precipitacao
2014-10-16,800,1.4,19.9,20.1,precipitacao
2014-10-16,900,20.6,19.7,20.0,precipitacao
2014-10-16,1000,0.0,20.1,20.1,precipitacao
2014-10-16,1100,0.0,20.0,20.2,precipitacao
2014-10-16,1200,0.0,20.3,20.4,precipitacao
2014-10-16,1300,0.0,20.1,20.4,precipitacao
2014-10-16,1400,0.0,20.0,20.1,precipitacao
2014-10-16,1500,3.2,19.9,20.0,precipitacao
2014-10-16,1600,9.6,19.9,20.1,precipitacao
2014-10-16,1700,4.2,19.8,19.9,precipitacao
2014-10-16,1800,4.6,19.7,19.9,precipitacao
2014-10-16,1900,0.4,19.8,20.1,precipitacao
2014-10-16,2000,2.6,19.9,19.9,precipitacao
2014-10-16,2100,7.8,19.8,19.9,precipitacao
2014-10-16,2200,1.8,20.0,20.0,precipitacao
2014-10-16,2300,0.4,21.1,21.1,precipitacao
2014-12-21,0,14.2,20.5,24.8,precipitacao
2014-12-21,100,6.0,21.9,22.2,precipitacao
2014-12-21,200,6.0,21.7,22.0,precipitacao
2014-12-21,300,0.8,21.3,21.8,precipitacao
2014-12-21,400,1.2,21.2,21.5,precipitacao
2014-12-21,500,0.0,21.9,21.9,precipitacao
2014-12-21,600,0.0,21.7,22.1,precipitacao
2014-12-21,700,0.4,22.1,22.1,precipitacao
2014-12-21,800,0.0,22.3,22.4,precipitacao
2014-12-21,900,0.8,22.1,22.3,precipitacao
2014-12-21,1000,2.4,22.1,22.2,precipitacao
2014-12-21,1100,5.6,21.6,22.1,precipitacao
2014-12-21,1200,2.2,23.2,23.7,precipitacao
2014-12-21,1300,0.0,23.6,23.8,precipitacao
2014-12-21,1400,0.0,23.6,23.9,precipitacao
2014-12-21,1500,0.0,23.5,24.0,precipitacao
2014-12-21,1600,0.2,23.3,23.9,precipitacao
2014-12-21,1700,0.6,23.5,23.6,precipitacao
2014-12-21,1800,0.2,23.6,23.6,precipitacao
2014-12-21,1900,0.8,23.9,23.9,precipitacao
2014-12-21,2000,27.4,21.8,24.0,precipitacao
2014-12-21,2100,2.2,21.9,22.0,precipitacao
2014-12-21,2200,0.0,22.3,22.4,precipitacao
2014-12-21,2300,0.0,21.9,22.5,precipitacao
2015-05-11,0,0.0,19.0,19.1,precipitacao
2015-05-11,100,0.0,18.3,19.0,precipitacao
2015-05-11,200,0.0,18.2,18.4,precipitacao
2015-05-11,300,0.0,17.7,18.2,precipitacao
2015-05-11,400,0.0,17.6,17.7,precipitacao
2015-05-11,500,0.0,17.1,17.6,precipitacao
2015-05-11,600,0.0,17.1,17.1,precipitacao
2015-05-11,700,0.0,17.2,17.2,precipitacao
2015-05-11,800,1.8,17.5,17.6,precipitacao
2015-05-11,900,3.2,17.3,17.8,precipitacao
2015-05-11,1000,4.0,16.8,17.8,precipitacao
2015-05-11,1100,8.2,16.4,17.5,precipitacao
2015-05-11,1200,10.4,16.8,17.4,precipitacao
2015-05-11,1300,16.4,16.4,17.3,precipitacao
2015-05-11,1400,8.0,17.1,17.7,precipitacao
2015-05-11,1500,3.6,18.3,18.3,precipitacao
2015-05-11,1600,1.2,18.4,18.7,precipitacao
2015-05-11,1700,0.4,19.3,19.5,precipitacao
2015-05-11,1800,0.0,19.7,19.8,precipitacao
2015-05-11,1900,0.0,19.9,20.0,precipitacao
2015-05-11,2000,0.0,19.8,20.0,precipitacao
2015-05-11,2100,0.0,19.8,19.9,precipitacao
2015-05-11,2200,0.0,19.4,19.9,precipitacao
2015-05-11,2300,0.2,18.3,19.8,precipitacao
2015-05-27,0,0.0,20.6,20.7,precipitacao
2015-05-27,100,4.8,19.4,20.6,precipitacao
2015-05-27,200,4.4,18.7,19.5,precipitacao
2015-05-27,300,2.0,19.0,19.1,precipitacao
2015-05-27,400,1.2,18.9,19.4,precipitacao
2015-05-27,500,1.6,18.8,19.1,precipitacao
2015-05-27,600,1.6,18.5,19.0,precipitacao
2015-05-27,700,1.4,18.3,18.8,precipitacao
2015-05-27,800,3.4,17.4,18.5,precipitacao
2015-05-27,900,4.8,17.6,17.9,precipitacao
2015-05-27,1000,5.2,17.7,18.2,precipitacao
2015-05-27,1100,2.2,17.9,18.3,precipitacao
2015-05-27,1200,9.2,17.8,18.5,precipitacao
2015-05-27,1300,6.2,18.8,18.8,precipitacao
2015-05-27,1400,7.0,18.8,19.2,precipitacao
2015-05-27,1500,8.2,18.8,19.0,precipitacao
2015-05-27,1600,6.8,18.6,19.0,precipitacao
2015-05-27,1700,8.4,18.6,19.0,precipitacao
2015-05-27,1800,9.6,18.4,18.7,precipitacao
2015-05-27,1900,6.0,17.5,18.5,precipitacao
2015-05-27,2000,5.6,18.6,18.8,precipitacao
2015-05-27,2100,2.6,18.7,18.9,precipitacao
2015-05-27,2200,2.0,18.3,18.9,precipitacao
2015-05-27,2300,1.2,18.5,18.8,precipitacao
2015-07-20,0,0.0,17.0,17.1,precipitacao
2015-07-20,100,0.0,16.9,17.1,precipitacao
2015-07-20,200,0.2,17.1,17.2,precipitacao
2015-07-20,300,0.0,17.1,17.1,precipitacao
2015-07-20,400,0.0,17.4,17.6,precipitacao
2015-07-20,500,7.0,16.5,17.8,precipitacao
2015-07-20,600,0.6,16.2,16.5,precipitacao
2015-07-20,700,3.6,16.4,16.4,precipitacao
2015-07-20,800,9.0,16.4,16.4,precipitacao
2015-07-20,900,3.8,16.3,16.4,precipitacao
2015-07-20,1000,4.4,16.3,16.3,precipitacao
2015-07-20,1100,4.4,16.4,16.4,precipitacao
2015-07-20,1200,1.4,16.5,16.5,precipitacao
2015-07-20,1300,2.4,16.6,16.6,precipitacao
2015-07-20,1400,3.6,16.7,16.7,precipitacao
2015-07-20,1500,3.6,16.6,16.7,precipitacao
2015-07-20,1600,2.2,16.7,16.8,precipitacao
2015-07-20,1700,3.0,16.3,16.8,precipitacao
2015-07-20,1800,2.2,16.3,16.3,precipitacao
2015-07-20,1900,2.0,15.8,16.3,precipitacao
2015-07-20,2000,0.4,16.1,16.1,precipitacao
2015-07-20,2100,1.2,16.0,16.1,precipitacao
2015-07-20,2200,0.6,15.6,16.0,precipitacao
2015-07-20,2300,0.0,15.5,15.6,precipitacao
2015-08-05,0,0.0,17.7,17.8,precipitacao
2015-08-05,100,0.0,18.0,18.0,precipitacao
2015-08-05,200,0.0,18.2,18.2,precipitacao
2015-08-05,300,5.8,16.8,18.2,precipitacao
2015-08-05,400,8.4,16.9,17.0,precipitacao
2015-08-05,500,9.2,16.8,17.0,precipitacao
2015-08-05,600,5.2,16.7,16.9,precipitacao
2015-08-05,700,3.2,16.8,16.9,precipitacao
2015-08-05,800,10.4,16.8,16.9,precipitacao
2015-08-05,900,4.0,16.8,16.9,precipitacao
2015-08-05,1000,7.2,17.0,17.1,precipitacao
2015-08-05,1100,8.8,16.6,17.1,precipitacao
2015-08-05,1200,3.6,16.7,16.8,precipitacao
2015-08-05,1300,5.4,16.8,16.9,precipitacao
2015-08-05,1400,3.2,17.1,17.1,precipitacao
2015-08-05,1500,0.0,17.5,17.7,precipitacao
2015-08-05,1600,0.0,17.8,18.0,precipitacao
2015-08-05,1700,0.0,17.8,18.0,precipitacao
2015-08-05,1800,0.0,18.0,18.1,precipitacao
2015-08-05,1900,0.0,18.1,18.1,precipitacao
2015-08-05,2000,0.0,18.1,18.2,precipitacao
2015-08-05,2100,0.0,18.0,18.1,precipitacao
2015-08-05,2200,0.0,18.1,18.2,precipitacao
2015-08-05,2300,0.0,18.0,18.2,precipitacao
2015-09-16,0,0.0,18.3,18.4,precipitacao
2015-09-16,100,0.0,18.1,18.3,precipitacao
2015-09-16,200,0.0,18.2,18.2,precipitacao
2015-09-16,300,0.0,18.1,18.2,precipitacao
2015-09-16,400,0.0,18.1,18.2,precipitacao
2015-09-16,500,0.0,18.0,18.1,precipitacao
2015-09-16,600,0.0,18.0,18.0,precipitacao
2015-09-16,700,0.0,18.2,18.3,precipitacao
2015-09-16,800,0.6,18.2,18.5,precipitacao
2015-09-16,900,6.0,18.2,18.4,precipitacao
2015-09-16,1000,8.2,17.9,18.2,precipitacao
2015-09-16,1100,3.0,18.0,18.5,precipitacao
2015-09-16,1200,0.0,18.1,18.1,precipitacao
2015-09-16,1300,3.6,18.5,18.5,precipitacao
2015-09-16,1400,2.4,18.1,18.5,precipitacao
2015-09-16,1500,12.4,17.9,18.2,precipitacao
2015-09-16,1600,0.8,18.3,18.6,precipitacao
2015-09-16,1700,9.2,17.9,18.7,precipitacao
2015-09-16,1800,6.2,18.2,18.3,precipitacao
2015-09-16,1900,0.0,18.1,18.3,precipitacao
2015-09-16,2000,0.2,18.4,18.5,precipitacao
2015-09-16,2100,0.2,18.3,18.4,precipitacao
2015-09-16,2200,0.4,16.9,18.3,precipitacao
2015-09-16,2300,0.0,16.8,17.0,precipitacao
2015-10-08,0,1.6,18.8,18.9,precipitacao
2015-10-08,100,3.4,19.1,19.1,precipitacao
2015-10-08,200,4.4,19.2,19.2,precipitacao
2015-10-08,300,6.4,19.2,19.3,precipitacao
2015-10-08,400,4.4,19.1,19.2,precipitacao
2015-10-08,500,0.2,19.3,19.3,precipitacao
2015-10-08,600,0.0,20.2,20.2,precipitacao
2015-10-08,700,0.0,21.3,21.3,precipitacao
2015-10-08,800,1.0,20.7,22.0,precipitacao
2015-10-08,900,8.0,19.3,21.2,precipitacao
2015-10-08,1000,7.8,18.9,19.3,precipitacao
2015-10-08,1100,6.6,18.5,18.9,precipitacao
2015-10-08,1200,1.0,18.5,18.6,precipitacao
2015-10-08,1300,4.8,19.0,19.1,precipitacao
2015-10-08,1400,5.4,18.9,19.1,precipitacao
2015-10-08,1500,1.2,18.6,19.0,precipitacao
2015-10-08,1600,0.4,18.5,18.7,precipitacao
2015-10-08,1700,1.8,18.8,18.8,precipitacao
2015-10-08,1800,1.8,18.9,19.0,precipitacao
2015-10-08,1900,0.0,19.1,19.1,precipitacao
2015-10-08,2000,0.6,19.3,19.3,precipitacao
2015-10-08,2100,0.2,19.2,19.3,precipitacao
2015-10-08,2200,0.4,20.6,20.6,precipitacao
2015-10-08,2300,0.0,19.5,20.7,precipitacao
2015-10-15,0,0.0,19.1,19.2,precipitacao
2015-10-15,100,0.0,19.2,19.2,precipitacao
2015-10-15,200,0.0,19.2,19.2,precipitacao
2015-10-15,300,3.4,20.8,20.9,precipitacao
2015-10-15,400,15.0,19.7,20.8,precipitacao
2015-10-15,500,9.6,19.1,19.7,precipitacao
2015-10-15,600,0.2,19.0,19.1,precipitacao
2015-10-15,700,1.4,18.8,19.0,precipitacao
2015-10-15,800,1.6,19.1,19.6,precipitacao
2015-10-15,900,0.0,19.0,19.5,precipitacao
2015-10-15,1000,0.0,19.1,19.1,precipitacao
2015-10-15,1100,0.0,19.0,19.1,precipitacao
2015-10-15,1200,4.6,20.9,21.1,precipitacao
2015-10-15,1300,4.8,20.5,20.8,precipitacao
2015-10-15,1400,0.8,21.9,22.2,precipitacao
2015-10-15,1500,2.0,20.8,21.9,precipitacao
2015-10-15,1600,3.0,20.1,20.8,precipitacao
2015-10-15,1700,1.8,20.5,20.6,precipitacao
2015-10-15,1800,1.4,20.4,20.5,precipitacao
2015-10-15,1900,2.2,20.8,20.8,precipitacao
2015-10-15,2000,0.6,20.7,21.2,precipitacao
2015-10-15,2100,0.8,20.2,21.2,precipitacao
2015-10-15,2200,0.2,20.3,20.3,precipitacao
2015-10-15,2300,0.0,19.6,20.3,precipitacao
2015-11-05,0,0.0,18.6,18.7,precipitacao
2015-11-05,100,0.0,18.5,18.7,precipitacao
2015-11-05,200,0.4,18.0,18.6,precipitacao
2015-11-05,300,1.2,17.8,18.1,precipitacao
2015-11-05,400,0.4,17.8,17.9,precipitacao
2015-11-05,500,0.2,17.9,18.1,precipitacao
2015-11-05,600,0.2,18.2,18.3,precipitacao
2015-11-05,700,1.6,17.9,18.4,precipitacao
2015-11-05,800,2.8,17.8,18.0,precipitacao
2015-11-05,900,8.6,17.7,17.9,precipitacao
2015-11-05,1000,15.4,16.5,17.7,precipitacao
2015-11-05,1100,5.4,16.2,17.1,precipitacao
2015-11-05,1200,0.8,17.1,17.2,precipitacao
2015-11-05,1300,1.2,16.8,17.6,precipitacao
2015-11-05,1400,4.2,16.4,17.0,precipitacao
2015-11-05,1500,1.8,16.0,16.7,precipitacao
2015-11-05,1600,1.6,15.5,16.1,precipitacao
2015-11-05,1700,2.0,15.5,16.1,precipitacao
2015-11-05,1800,2.6,16.5,16.6,precipitacao
2015-11-05,1900,0.2,15.9,17.1,precipitacao
2015-11-05,2000,0.2,17.4,17.5,precipitacao
2015-11-05,2100,0.0,17.6,17.8,precipitacao
2015-11-05,2200,0.0,17.5,17.8,precipitacao
2015-11-05,2300,0.0,17.7,17.9,precipitacao
2016-01-31,0,0.0,24.5,24.5,precipitacao
2016-01-31,100,1.2,24.6,24.8,precipitacao
2016-01-31,200,1.8,24.2,24.6,precipitacao
2016-01-31,300,0.6,23.6,24.3,precipitacao
2016-01-31,400,0.2,23.5,23.7,precipitacao
2016-01-31,500,0.8,24.2,24.3,precipitacao
2016-01-31,600,4.0,23.2,24.2,precipitacao
2016-01-31,700,10.6,21.7,23.2,precipitacao
2016-01-31,800,7.2,21.3,21.9,precipitacao
2016-01-31,900,6.4,21.5,21.5,precipitacao
2016-01-31,1000,12.8,21.6,21.8,precipitacao
2016-01-31,1100,11.4,21.2,21.6,precipitacao
2016-01-31,1200,8.8,21.7,21.7,precipitacao
2016-01-31,1300,7.6,21.7,22.1,precipitacao
2016-01-31,1400,3.4,22.1,22.2,precipitacao
2016-01-31,1500,0.2,22.5,22.8,precipitacao
2016-01-31,1600,0.0,23.2,23.3,precipitacao
2016-01-31,1700,0.6,22.8,23.6,precipitacao
2016-01-31,1800,1.0,22.7,23.2,precipitacao
2016-01-31,1900,0.6,22.6,23.0,precipitacao
2016-01-31,2000,0.0,22.9,23.1,precipitacao
2016-01-31,2100,0.0,23.3,23.5,precipitacao
2016-01-31,2200,0.0,23.3,23.4,precipitacao
2016-01-31,2300,0.2,22.8,23.3,precipitacao
2016-03-03,0,6.2,21.7,24.6,precipitacao
2016-03-03,100,6.4,20.6,22.4,precipitacao
2016-03-03,200,12.8,21.0,21.3,precipitacao
2016-03-03,300,11.8,19.9,21.5,precipitacao
2016-03-03,400,5.4,20.5,21.0,precipitacao
2016-03-03,500,2.8,20.3,20.8,precipitacao
2016-03-03,600,9.0,20.6,21.0,precipitacao
2016-03-03,700,6.8,19.7,20.6,precipitacao
2016-03-03,800,4.6,19.7,19.8,precipitacao
2016-03-03,900,6.6,19.6,20.1,precipitacao
2016-03-03,1000,1.8,20.0,20.1,precipitacao
2016-03-03,1100,0.8,20.7,20.8,precipitacao
2016-03-03,1200,0.0,21.4,22.2,precipitacao
2016-03-03,1300,0.0,21.7,22.5,precipitacao
2016-03-03,1400,0.0,22.9,22.9,precipitacao
2016-03-03,1500,0.0,22.5,23.0,precipitacao
2016-03-03,1600,0.8,22.1,22.7,precipitacao
2016-03-03,1700,3.4,22.3,22.3,precipitacao
2016-03-03,1800,0.2,23.0,23.3,precipitacao
2016-03-03,1900,0.0,23.1,23.3,precipitacao
2016-03-03,2000,0.0,23.0,23.3,precipitacao
2016-03-03,2100,0.0,23.0,23.6,precipitacao
2016-03-03,2200,0.0,23.2,23.4,precipitacao
2016-03-03,2300,0.2,22.7,23.2,precipitacao
2016-03-21,0,0.0,22.4,22.6,precipitacao
2016-03-21,100,5.0,22.6,22.7,precipitacao
2016-03-21,200,24.2,22.1,22.8,precipitacao
2016-03-21,300,21.8,21.7,22.1,precipitacao
2016-03-21,400,22.2,21.7,22.1,precipitacao
2016-03-21,500,1.2,21.9,21.9,precipitacao
2016-03-21,600,0.2,22.2,22.3,precipitacao
2016-03-21,700,0.6,22.3,22.6,precipitacao
2016-03-21,800,0.0,22.6,22.6,precipitacao
2016-03-21,900,0.0,23.0,23.0,precipitacao
2016-03-21,1000,0.4,23.1,23.2,precipitacao
2016-03-21,1100,0.0,23.4,23.5,precipitacao
2016-03-21,1200,0.2,24.0,24.5,precipitacao
2016-03-21,1300,0.0,24.4,25.1,precipitacao
2016-03-21,1400,0.0,24.8,25.1,precipitacao
2016-03-21,1500,0.0,25.5,25.8,precipitacao
2016-03-21,1600,0.0,25.6,25.6,precipitacao
2016-03-21,1700,0.0,27.7,28.2,precipitacao
2016-03-21,1800,0.0,26.0,27.8,precipitacao
2016-03-21,1900,0.0,26.7,27.0,precipitacao
2016-03-21,2000,0.0,25.6,27.0,precipitacao
2016-03-21,2100,0.0,24.7,25.6,precipitacao
2016-03-21,2200,0.0,24.5,24.8,precipitacao
2016-03-21,2300,0.0,24.2,24.5,precipitacao
2016-03-26,0,2.4,19.8,20.2,precipitacao
2016-03-26,100,0.6,20.4,20.4,precipitacao
2016-03-26,200,1.0,20.7,20.8,precipitacao
2016-03-26,300,2.0,20.5,21.3,precipitacao
2016-03-26,400,0.4,20.8,21.0,precipitacao
2016-03-26,500,3.4,20.9,21.0,precipitacao
2016-03-26,600,1.4,21.2,21.4,precipitacao
2016-03-26,700,6.2,22.0,22.1,precipitacao
2016-03-26,800,1.8,22.2,22.2,precipitacao
2016-03-26,900,1.2,22.4,22.4,precipitacao
2016-03-26,1000,10.8,21.9,22.8,precipitacao
2016-03-26,1100,3.4,21.1,21.9,precipitacao
2016-03-26,1200,16.2,21.5,21.5,precipitacao
2016-03-26,1300,0.6,22.4,22.7,precipitacao
2016-03-26,1400,0.2,23.7,23.7,precipitacao
2016-03-26,1500,2.8,23.1,23.9,precipitacao
2016-03-26,1600,4.6,25.0,25.0,precipitacao
2016-03-26,1700,0.0,25.3,25.8,precipitacao
2016-03-26,1800,0.0,24.7,25.6,precipitacao
2016-03-26,1900,0.0,24.6,25.1,precipitacao
2016-03-26,2000,15.4,24.9,24.9,precipitacao
2016-03-26,2100,0.0,23.1,25.6,precipitacao
2016-03-26,2200,0.0,22.3,23.1,precipitacao
2016-03-26,2300,0.0,22.5,22.6,precipitacao
2016-07-11,0,0.0,14.2,14.3,precipitacao
2016-07-11,100,0.0,13.9,14.2,precipitacao
2016-07-11,200,0.0,14.0,14.0,precipitacao
2016-07-11,300,0.0,13.8,14.0,precipitacao
2016-07-11,400,0.0,14.0,14.1,precipitacao
2016-07-11,500,0.0,14.5,14.5,precipitacao
2016-07-11,600,18.6,14.0,14.7,precipitacao
2016-07-11,700,14.0,14.0,14.2,precipitacao
2016-07-11,800,3.4,13.9,14.0,precipitacao
2016-07-11,900,13.8,14.1,14.2,precipitacao
2016-07-11,1000,9.0,14.3,14.3,precipitacao
2016-07-11,1100,4.8,14.3,14.4,precipitacao
2016-07-11,1200,4.8,14.3,14.3,precipitacao
2016-07-11,1300,4.4,14.7,14.7,precipitacao
2016-07-11,1400,4.2,15.3,15.3,precipitacao
2016-07-11,1500,3.4,16.1,16.1,precipitacao
2016-07-11,1600,1.8,16.1,16.4,precipitacao
2016-07-11,1700,5.2,15.8,16.1,precipitacao
2016-07-11,1800,3.6,15.9,15.9,precipitacao
2016-07-11,1900,0.2,16.3,16.4,precipitacao
2016-07-11,2000,0.0,16.4,16.7,precipitacao
2016-07-11,2100,0.4,16.3,16.5,precipitacao
2016-07-11,2200,0.6,16.4,16.7,precipitacao
2016-07-11,2300,0.8,16.8,16.8,precipitacao
2016-10-17,0,0.0,19.9,20.6,precipitacao
2016-10-17,100,0.0,20.1,20.2,precipitacao
2016-10-17,200,0.0,20.1,20.2,precipitacao
2016-10-17,300,0.0,21.0,21.0,precipitacao
2016-10-17,400,1.6,22.9,22.9,precipitacao
2016-10-17,500,15.4,20.8,24.4,precipitacao
2016-10-17,600,4.8,21.8,21.8,precipitacao
2016-10-17,700,4.0,21.0,22.2,precipitacao
2016-10-17,800,1.8,20.1,21.0,precipitacao
2016-10-17,900,1.8,20.3,20.6,precipitacao
2016-10-17,1000,4.2,20.6,20.7,precipitacao
2016-10-17,1100,2.8,20.6,20.7,precipitacao
2016-10-17,1200,2.0,20.5,20.6,precipitacao
2016-10-17,1300,2.4,20.4,20.5,precipitacao
2016-10-17,1400,5.2,19.8,20.4,precipitacao
2016-10-17,1500,4.6,19.4,19.8,precipitacao
2016-10-17,1600,6.2,19.3,19.4,precipitacao
2016-10-17,1700,4.8,18.9,19.3,precipitacao
2016-10-17,1800,5.6,18.7,18.9,precipitacao
2016-10-17,1900,1.0,18.7,18.8,precipitacao
2016-10-17,2000,0.0,19.4,19.4,precipitacao
2016-10-17,2100,0.0,20.4,20.4,precipitacao
2016-10-17,2200,0.0,19.5,20.4,precipitacao
2016-10-17,2300,0.0,19.7,19.9,precipitacao
2017-01-04,0,0.0,25.4,25.5,precipitacao
2017-01-04,100,0.0,25.1,25.4,precipitacao
2017-01-04,200,0.0,24.9,25.1,precipitacao
2017-01-04,300,0.0,24.7,24.9,precipitacao
2017-01-04,400,0.0,24.6,24.7,precipitacao
2017-01-04,500,0.0,24.2,25.6,precipitacao
2017-01-04,600,15.4,22.5,24.2,precipitacao
2017-01-04,700,1.0,22.2,22.5,precipitacao
2017-01-04,800,0.0,22.6,22.7,precipitacao
2017-01-04,900,0.0,23.3,23.7,precipitacao
2017-01-04,1000,0.0,23.1,23.5,precipitacao
2017-01-04,1100,0.0,23.9,24.5,precipitacao
2017-01-04,1200,0.0,27.0,27.2,precipitacao
2017-01-04,1300,0.0,26.4,28.3,precipitacao
2017-01-04,1400,0.0,26.2,27.4,precipitacao
2017-01-04,1500,0.0,26.1,27.0,precipitacao
2017-01-04,1600,0.0,26.0,26.8,precipitacao
2017-01-04,1700,0.0,25.9,26.8,precipitacao
2017-01-04,1800,0.0,26.3,26.8,precipitacao
2017-01-04,1900,23.8,21.3,26.7,precipitacao
2017-01-04,2000,33.2,21.3,22.6,precipitacao
2017-01-04,2100,8.0,22.0,22.0,precipitacao
2017-01-04,2200,2.2,22.0,22.1,precipitacao
2017-01-04,2300,1.4,22.3,22.3,precipitacao
2017-03-12,0,0.0,25.4,25.4,precipitacao
2017-03-12,100,0.0,25.0,25.5,precipitacao
2017-03-12,200,0.0,24.9,25.1,precipitacao
2017-03-12,300,0.0,24.7,25.0,precipitacao
2017-03-12,400,0.0,24.6,24.8,precipitacao
2017-03-12,500,0.0,24.4,24.7,precipitacao
2017-03-12,600,0.0,24.4,24.5,precipitacao
2017-03-12,700,0.0,24.5,24.6,precipitacao
2017-03-12,800,0.0,24.4,24.5,precipitacao
2017-03-12,900,0.0,24.8,24.8,precipitacao
2017-03-12,1000,10.6,22.3,24.8,precipitacao
2017-03-12,1100,23.4,22.1,22.3,precipitacao
2017-03-12,1200,4.4,21.9,22.2,precipitacao
2017-03-12,1300,6.2,22.1,22.1,precipitacao
2017-03-12,1400,12.8,21.9,22.2,precipitacao
2017-03-12,1500,8.6,22.5,22.5,precipitacao
2017-03-12,1600,0.2,24.1,24.1,precipitacao
2017-03-12,1700,0.2,24.1,24.5,precipitacao
2017-03-12,1800,,,,precipitacao
2017-03-12,1900,0.0,22.3,24.3,precipitacao
2017-03-12,2000,1.0,21.8,22.3,precipitacao
2017-03-12,2100,0.0,22.1,22.2,precipitacao
2017-03-12,2200,0.0,21.9,22.2,precipitacao
2017-03-12,2300,0.0,21.5,22.0,precipitacao
2017-05-21,0,0.0,20.7,20.8,precipitacao
2017-05-21,100,0.0,20.6,20.8,precipitacao
2017-05-21,200,0.0,20.6,20.8,precipitacao
2017-05-21,300,1.4,20.3,20.6,precipitacao
2017-05-21,400,1.0,20.0,20.3,precipitacao
2017-05-21,500,6.4,19.7,20.0,precipitacao
2017-05-21,600,18.2,19.7,19.8,precipitacao
2017-05-21,700,3.2,20.1,20.1,precipitacao
2017-05-21,800,5.8,18.2,20.2,precipitacao
2017-05-21,900,9.4,17.7,18.2,precipitacao
2017-05-21,1000,2.8,17.5,17.7,precipitacao
2017-05-21,1100,2.0,17.1,17.5,precipitacao
2017-05-21,1200,1.4,17.1,17.3,precipitacao
2017-05-21,1300,0.8,16.3,17.2,precipitacao
2017-05-21,1400,0.4,16.5,16.5,precipitacao
2017-05-21,1500,0.4,16.6,16.8,precipitacao
2017-05-21,1600,0.0,17.0,17.1,precipitacao
2017-05-21,1700,0.0,17.5,17.8,precipitacao
2017-05-21,1800,0.0,19.0,19.3,precipitacao
2017-05-21,1900,0.0,18.9,19.5,precipitacao
2017-05-21,2000,0.0,17.8,18.9,precipitacao
2017-05-21,2100,0.0,15.9,17.8,precipitacao
2017-05-21,2200,0.0,14.9,15.9,precipitacao
2017-05-21,2300,0.0,14.5,14.9,precipitacao
2017-06-01,0,1.0,17.3,17.3,precipitacao
2017-06-01,100,0.4,17.5,17.6,precipitacao
2017-06-01,200,0.4,18.3,18.5,precipitacao
2017-06-01,300,0.0,17.9,18.5,precipitacao
2017-06-01,400,0.0,18.3,18.3,precipitacao
2017-06-01,500,0.0,18.3,18.5,precipitacao
2017-06-01,600,0.0,18.4,18.6,precipitacao
2017-06-01,700,0.0,18.5,18.6,precipitacao
2017-06-01,800,0.4,18.2,18.5,precipitacao
2017-06-01,900,0.8,18.3,18.5,precipitacao
2017-06-01,1000,0.4,18.1,18.3,precipitacao
2017-06-01,1100,1.6,17.7,18.3,precipitacao
2017-06-01,1200,1.6,18.1,18.2,precipitacao
2017-06-01,1300,3.2,18.0,18.2,precipitacao
2017-06-01,1400,5.2,18.0,18.2,precipitacao
2017-06-01,1500,2.2,18.4,18.4,precipitacao
2017-06-01,1600,3.6,18.2,18.5,precipitacao
2017-06-01,1700,24.4,16.1,18.2,precipitacao
2017-06-01,1800,1.4,16.8,17.0,precipitacao
2017-06-01,1900,0.4,17.2,17.5,precipitacao
2017-06-01,2000,3.2,17.2,17.6,precipitacao
2017-06-01,2100,3.2,17.8,17.9,precipitacao
2017-06-01,2200,0.8,17.2,18.2,precipitacao
2017-06-01,2300,0.0,16.8,17.3,precipitacao
2017-09-15,0,2.0,19.0,19.4,precipitacao
2017-09-15,100,2.4,19.0,19.0,precipitacao
2017-09-15,200,2.8,19.0,19.0,precipitacao
2017-09-15,300,3.0,18.8,19.0,precipitacao
2017-09-15,400,1.0,18.8,18.8,precipitacao
2017-09-15,500,3.6,18.6,18.8,precipitacao
2017-09-15,600,0.2,18.3,18.6,precipitacao
2017-09-15,700,1.6,17.5,18.3,precipitacao
2017-09-15,800,0.8,17.1,17.5,precipitacao
2017-09-15,900,1.2,16.3,17.1,precipitacao
2017-09-15,1000,1.0,16.7,16.9,precipitacao
2017-09-15,1100,1.2,16.6,16.9,precipitacao
2017-09-15,1200,3.0,16.8,16.8,precipitacao
2017-09-15,1300,6.8,16.7,17.0,precipitacao
2017-09-15,1400,4.8,16.2,16.9,precipitacao
2017-09-15,1500,2.8,16.5,16.5,precipitacao
2017-09-15,1600,0.8,16.6,16.7,precipitacao
2017-09-15,1700,2.2,16.7,16.8,precipitacao
2017-09-15,1800,2.4,17.2,17.2,precipitacao
2017-09-15,1900,3.8,17.0,17.3,precipitacao
2017-09-15,2000,3.0,17.4,17.4,precipitacao
2017-09-15,2100,6.2,16.6,17.4,precipitacao
2017-09-15,2200,6.6,16.9,17.5,precipitacao
2017-09-15,2300,6.2,16.9,17.0,precipitacao
2017-09-16,0,5.2,16.8,17.1,precipitacao
2017-09-16,100,4.2,17.0,17.4,precipitacao
2017-09-16,200,3.6,17.4,17.4,precipitacao
2017-09-16,300,4.6,17.4,17.6,precipitacao
2017-09-16,400,3.4,17.1,17.5,precipitacao
2017-09-16,500,7.0,16.2,17.3,precipitacao
2017-09-16,600,3.4,16.6,16.8,precipitacao
2017-09-16,700,4.8,16.7,16.9,precipitacao
2017-09-16,800,4.4,17.0,17.2,precipitacao
2017-09-16,900,1.0,17.3,17.4,precipitacao
2017-09-16,1000,3.6,17.5,17.6,precipitacao
2017-09-16,1100,1.6,17.3,17.7,precipitacao
2017-09-16,1200,3.4,17.4,17.4,precipitacao
2017-09-16,1300,1.8,17.0,17.4,precipitacao
2017-09-16,1400,3.6,17.0,17.4,precipitacao
2017-09-16,1500,4.2,17.4,17.5,precipitacao
2017-09-16,1600,6.4,17.2,17.4,precipitacao
2017-09-16,1700,2.2,17.6,17.6,precipitacao
2017-09-16,1800,0.4,18.1,18.3,precipitacao
2017-09-16,1900,0.0,18.0,18.3,precipitacao
2017-09-16,2000,0.4,18.1,18.3,precipitacao
2017-09-16,2100,5.2,17.8,18.1,precipitacao
2017-09-16,2200,2.0,17.7,17.9,precipitacao
2017-09-16,2300,0.8,17.7,17.8,precipitacao
2017-09-30,0,0.6,17.2,17.2,precipitacao
2017-09-30,100,0.6,17.4,17.5,precipitacao
2017-09-30,200,1.6,17.1,17.4,precipitacao
2017-09-30,300,3.6,17.0,17.3,precipitacao
2017-09-30,400,2.8,16.8,17.0,precipitacao
2017-09-30,500,2.8,16.9,17.0,precipitacao
2017-09-30,600,3.4,16.9,17.1,precipitacao
2017-09-30,700,3.2,17.1,17.2,precipitacao
2017-09-30,800,3.0,17.5,17.5,precipitacao
2017-09-30,900,4.4,17.7,17.8,precipitacao
2017-09-30,1000,5.8,17.7,17.8,precipitacao
2017-09-30,1100,5.2,17.6,18.1,precipitacao
2017-09-30,1200,5.4,17.6,17.8,precipitacao
2017-09-30,1300,7.8,17.5,17.7,precipitacao
2017-09-30,1400,1.0,18.0,18.1,precipitacao
2017-09-30,1500,3.8,17.8,18.0,precipitacao
2017-09-30,1600,1.2,18.1,18.1,precipitacao
2017-09-30,1700,0.2,18.2,18.3,precipitacao
2017-09-30,1800,0.2,18.2,18.3,precipitacao
2017-09-30,1900,,,,precipitacao
2017-09-30,2000,0.0,19.0,19.5,precipitacao
2017-09-30,2100,0.0,19.2,19.3,precipitacao
2017-09-30,2200,0.0,18.4,19.2,precipitacao
2017-09-30,2300,0.0,17.7,18.4,precipitacao
2017-10-12,0,0.6,19.4,19.5,precipitacao
2017-10-12,100,3.8,19.3,19.5,precipitacao
2017-10-12,200,0.0,19.5,19.6,precipitacao
2017-10-12,300,0.2,19.5,19.6,precipitacao
2017-10-12,400,11.4,19.0,19.5,precipitacao
2017-10-12,500,0.0,19.3,19.3,precipitacao
2017-10-12,600,0.0,19.4,19.5,precipitacao
2017-10-12,700,0.0,19.6,19.7,precipitacao
2017-10-12,800,0.0,19.8,19.8,precipitacao
2017-10-12,900,4.8,19.6,19.8,precipitacao
2017-10-12,1000,1.2,19.5,19.7,precipitacao
2017-10-12,1100,8.4,19.3,19.6,precipitacao
2017-10-12,1200,7.0,19.3,19.4,precipitacao
2017-10-12,1300,4.8,19.5,19.5,precipitacao
2017-10-12,1400,1.2,19.6,19.6,precipitacao
2017-10-12,1500,0.2,19.7,19.7,precipitacao
2017-10-12,1600,0.0,19.9,19.9,precipitacao
2017-10-12,1700,4.2,19.9,20.0,precipitacao
2017-10-12,1800,5.4,20.0,20.0,precipitacao
2017-10-12,1900,3.2,19.9,20.0,precipitacao
2017-10-12,2000,3.8,19.9,20.0,precipitacao
2017-10-12,2100,3.8,19.9,19.9,precipitacao
2017-10-12,2200,2.2,20.0,20.0,precipitacao
2017-10-12,2300,0.2,20.0,20.1,precipitacao
2017-11-26,0,6.2,20.1,20.4,precipitacao
2017-11-26,100,5.4,19.9,20.3,precipitacao
2017-11-26,200,7.6,19.8,19.9,precipitacao
2017-11-26,300,21.2,18.7,19.9,precipitacao
2017-11-26,400,16.4,19.0,19.1,precipitacao
2017-11-26,500,3.2,18.6,19.1,precipitacao
2017-11-26,600,2.6,18.7,19.0,precipitacao
2017-11-26,700,0.0,19.0,19.1,precipitacao
2017-11-26,800,0.0,19.0,19.2,precipitacao
2017-11-26,900,0.2,19.1,19.2,precipitacao
2017-11-26,1000,3.2,18.5,19.2,precipitacao
2017-11-26,1100,0.0,18.9,19.3,precipitacao
2017-11-26,1200,0.0,20.8,21.0,precipitacao
2017-11-26,1300,0.0,19.9,22.0,precipitacao
2017-11-26,1400,1.6,18.9,19.9,precipitacao
2017-11-26,1500,0.4,20.6,20.6,precipitacao
2017-11-26,1600,0.0,20.4,20.7,precipitacao
2017-11-26,1700,0.0,21.8,21.8,precipitacao
2017-11-26,1800,0.2,22.1,22.4,precipitacao
2017-11-26,1900,0.0,21.9,22.6,precipitacao
2017-11-26,2000,0.0,21.2,22.6,precipitacao
2017-11-26,2100,0.0,20.9,21.6,precipitacao
2017-11-26,2200,0.0,20.4,21.4,precipitacao
2017-11-26,2300,0.0,19.9,20.4,precipitacao
2017-12-23,0,0.0,23.0,23.2,precipitacao
2017-12-23,100,0.0,23.0,23.0,precipitacao
2017-12-23,200,0.0,22.8,23.0,precipitacao
2017-12-23,300,0.0,22.8,22.9,precipitacao
2017-12-23,400,0.0,22.7,22.8,precipitacao
2017-12-23,500,0.0,22.3,22.7,precipitacao
2017-12-23,600,0.0,22.4,22.7,precipitacao
2017-12-23,700,0.0,22.0,22.5,precipitacao
2017-12-23,800,0.0,21.8,22.0,precipitacao
2017-12-23,900,0.0,21.7,22.0,precipitacao
2017-12-23,1000,0.0,24.0,24.0,precipitacao
2017-12-23,1100,0.0,24.9,25.3,precipitacao
2017-12-23,1200,0.2,26.1,26.7,precipitacao
2017-12-23,1300,0.2,23.6,26.7,precipitacao
2017-12-23,1400,2.2,24.4,24.4,precipitacao
2017-12-23,1500,0.0,26.5,26.6,precipitacao
2017-12-23,1600,8.0,23.6,26.4,precipitacao
2017-12-23,1700,0.0,24.4,26.2,precipitacao
2017-12-23,1800,0.0,23.8,25.2,precipitacao
2017-12-23,1900,37.4,23.0,23.9,precipitacao
2017-12-23,2000,17.6,23.2,23.3,precipitacao
2017-12-23,2100,21.0,23.0,23.3,precipitacao
2017-12-23,2200,3.0,22.1,23.0,precipitacao
2017-12-23,2300,2.0,21.8,22.3,precipitacao
2018-07-17,0,0.0,15.7,16.2,precipitacao
2018-07-17,100,0.2,15.7,15.8,precipitacao
2018-07-17,200,0.4,15.7,15.7,precipitacao
2018-07-17,300,0.4,15.7,15.7,precipitacao
2018-07-17,400,1.0,15.8,16.0,precipitacao
2018-07-17,500,0.2,15.7,15.9,precipitacao
2018-07-17,600,1.0,15.6,15.8,precipitacao
2018-07-17,700,0.8,15.5,15.7,precipitacao
2018-07-17,800,0.2,15.9,16.1,precipitacao
2018-07-17,900,8.8,15.8,16.2,precipitacao
2018-07-17,1000,0.8,15.8,15.9,precipitacao
2018-07-17,1100,1.6,15.8,15.9,precipitacao
2018-07-17,1200,1.6,15.7,15.8,precipitacao
2018-07-17,1300,2.0,15.9,15.9,precipitacao
2018-07-17,1400,7.4,16.9,17.0,precipitacao
2018-07-17,1500,11.2,17.4,17.6,precipitacao
2018-07-17,1600,12.4,16.5,17.5,precipitacao
2018-07-17,1700,9.6,16.6,16.7,precipitacao
2018-07-17,1800,7.4,16.0,16.6,precipitacao
2018-07-17,1900,5.8,16.0,16.3,precipitacao
2018-07-17,2000,6.0,16.1,16.3,precipitacao
2018-07-17,2100,2.8,16.3,16.5,precipitacao
2018-07-17,2200,0.6,16.0,16.8,precipitacao
2018-07-17,2300,0.0,16.1,16.1,precipitacao
2018-08-24,0,0.0,15.2,15.3,precipitacao
2018-08-24,100,0.0,15.3,15.3,precipitacao
2018-08-24,200,0.2,15.3,15.4,precipitacao
2018-08-24,300,0.0,15.2,15.3,precipitacao
2018-08-24,400,0.0,15.2,15.3,precipitacao
2018-08-24,500,0.0,15.2,15.2,precipitacao
2018-08-24,600,0.0,15.1,15.2,precipitacao
2018-08-24,700,0.0,15.4,15.4,precipitacao
2018-08-24,800,0.0,15.4,15.6,precipitacao
2018-08-24,900,0.0,15.3,15.4,precipitacao
2018-08-24,1000,6.2,15.2,15.4,precipitacao
2018-08-24,1100,1.2,15.3,15.3,precipitacao
2018-08-24,1200,10.6,15.2,15.3,precipitacao
2018-08-24,1300,2.6,15.3,15.4,precipitacao
2018-08-24,1400,15.8,15.7,15.8,precipitacao
2018-08-24,1500,3.8,16.5,16.5,precipitacao
2018-08-24,1600,0.4,16.6,17.1,precipitacao
2018-08-24,1700,2.6,16.6,16.6,precipitacao
2018-08-24,1800,7.4,16.3,16.8,precipitacao
2018-08-24,1900,2.8,16.5,16.6,precipitacao
2018-08-24,2000,6.6,16.8,16.8,precipitacao
2018-08-24,2100,8.6,16.6,17.1,precipitacao
2018-08-24,2200,0.8,17.0,17.0,precipitacao
2018-08-24,2300,0.0,16.6,17.0,precipitacao
2019-03-09,0,0.2,25.3,25.6,precipitacao
2019-03-09,100,0.4,25.0,25.3,precipitacao
2019-03-09,200,4.0,24.7,25.3,precipitacao
2019-03-09,300,0.8,24.9,24.9,precipitacao
2019-03-09,400,12.0,24.3,24.9,precipitacao
2019-03-09,500,27.6,23.0,24.3,precipitacao
2019-03-09,600,6.4,23.3,23.5,precipitacao
2019-03-09,700,14.2,23.1,23.5,precipitacao
2019-03-09,800,6.0,22.9,23.2,precipitacao
2019-03-09,900,8.4,22.8,23.2,precipitacao
2019-03-09,1000,8.2,22.7,23.0,precipitacao
2019-03-09,1100,4.2,22.5,23.0,precipitacao
2019-03-09,1200,2.0,23.0,23.3,precipitacao
2019-03-09,1300,0.0,23.8,23.8,precipitacao
2019-03-09,1400,0.0,24.4,24.5,precipitacao
2019-03-09,1500,0.0,24.7,25.3,precipitacao
2019-03-09,1600,0.0,24.5,25.4,precipitacao
2019-03-09,1700,0.0,24.5,24.7,precipitacao
2019-03-09,1800,0.0,24.0,24.8,precipitacao
2019-03-09,1900,0.0,23.7,24.2,precipitacao
2019-03-09,2000,0.0,23.6,23.9,precipitacao
2019-03-09,2100,0.0,22.6,23.8,precipitacao
2019-03-09,2200,0.8,22.1,22.9,precipitacao
2019-03-09,2300,0.0,23.2,23.2,precipitacao
2019-04-16,0,0.0,23.6,23.7,precipitacao
2019-04-16,100,0.0,23.5,23.8,precipitacao
2019-04-16,200,0.0,23.5,23.7,precipitacao
2019-04-16,300,0.0,23.4,23.7,precipitacao
2019-04-16,400,0.0,23.7,23.8,precipitacao
2019-04-16,500,0.0,23.7,23.8,precipitacao
2019-04-16,600,1.6,23.1,23.7,precipitacao
2019-04-16,700,27.4,22.1,23.1,precipitacao
2019-04-16,800,51.6,20.2,22.1,precipitacao
2019-04-16,900,11.6,19.8,20.9,precipitacao
2019-04-16,1000,3.6,19.9,20.0,precipitacao
2019-04-16,1100,1.0,20.4,20.5,precipitacao
2019-04-16,1200,0.8,21.1,21.2,precipitacao
2019-04-16,1300,1.2,21.1,21.2,precipitacao
2019-04-16,1400,0.2,21.5,21.6,precipitacao
2019-04-16,1500,0.0,21.6,21.8,precipitacao
2019-04-16,1600,0.0,21.5,22.0,precipitacao
2019-04-16,1700,0.0,22.0,22.3,precipitacao
2019-04-16,1800,0.2,21.3,22.0,precipitacao
2019-04-16,1900,0.0,21.8,22.2,precipitacao
2019-04-16,2000,0.0,21.6,22.2,precipitacao
2019-04-16,2100,0.0,21.6,21.9,precipitacao
2019-04-16,2200,0.0,21.4,21.9,precipitacao
2019-04-16,2300,0.0,21.4,21.9,precipitacao
2019-05-28,0,1.4,19.3,19.7,precipitacao
2019-05-28,100,2.6,19.2,19.4,precipitacao
2019-05-28,200,7.8,18.7,19.2,precipitacao
2019-05-28,300,11.2,19.1,19.3,precipitacao
2019-05-28,400,15.2,18.8,19.2,precipitacao
2019-05-28,500,12.4,18.8,18.9,precipitacao
2019-05-28,600,7.6,18.3,18.8,precipitacao
2019-05-28,700,5.0,18.5,18.7,precipitacao
2019-05-28,800,0.0,18.2,18.5,precipitacao
2019-05-28,900,0.0,18.3,18.4,precipitacao
2019-05-28,1000,0.0,18.5,18.5,precipitacao
2019-05-28,1100,0.0,19.2,19.2,precipitacao
2019-05-28,1200,0.0,19.4,19.5,precipitacao
2019-05-28,1300,0.2,19.6,19.6,precipitacao
2019-05-28,1400,0.0,21.1,21.1,precipitacao
2019-05-28,1500,0.0,20.6,21.4,precipitacao
2019-05-28,1600,0.0,20.4,21.5,precipitacao
2019-05-28,1700,0.0,20.0,20.5,precipitacao
2019-05-28,1800,0.6,19.2,20.0,precipitacao
2019-05-28,1900,0.0,18.8,19.2,precipitacao
2019-05-28,2000,0.0,19.2,19.3,precipitacao
2019-05-28,2100,0.0,18.9,19.3,precipitacao
2019-05-28,2200,0.0,18.9,18.9,precipitacao
2019-05-28,2300,0.0,18.7,18.9,precipitacao
2019-07-24,0,0.0,17.7,17.8,precipitacao
2019-07-24,100,0.0,17.7,17.9,precipitacao
2019-07-24,200,0.0,17.7,18.2,precipitacao
2019-07-24,300,1.2,17.7,17.9,precipitacao
2019-07-24,400,9.0,17.5,17.7,precipitacao
2019-07-24,500,7.0,18.0,18.0,precipitacao
2019-07-24,600,5.8,17.9,18.0,precipitacao
2019-07-24,700,6.6,18.2,18.4,precipitacao
2019-07-24,800,7.4,18.1,18.3,precipitacao
2019-07-24,900,5.4,17.6,18.1,precipitacao
2019-07-24,1000,4.8,17.5,17.8,precipitacao
2019-07-24,1100,3.0,17.7,17.7,precipitacao
2019-07-24,1200,3.2,17.6,17.7,precipitacao
2019-07-24,1300,3.0,17.6,17.6,precipitacao
2019-07-24,1400,6.2,17.8,17.8,precipitacao
2019-07-24,1500,0.8,18.1,18.1,precipitacao
2019-07-24,1600,6.6,16.9,18.5,precipitacao
2019-07-24,1700,0.2,17.2,17.2,precipitacao
2019-07-24,1800,0.0,17.4,17.7,precipitacao
2019-07-24,1900,0.0,17.1,17.6,precipitacao
2019-07-24,2000,0.0,16.9,17.4,precipitacao
2019-07-24,2100,0.4,16.6,16.9,precipitacao
2019-07-24,2200,0.2,16.7,16.7,precipitacao
2019-07-24,2300,0.0,16.7,16.7,precipitacao
2020-03-16,0,0.0,24.7,24.7,precipitacao
2020-03-16,100,2.6,24.0,24.7,precipitacao
2020-03-16,200,0.0,23.9,24.1,precipitacao
2020-03-16,300,0.0,24.0,24.0,precipitacao
2020-03-16,400,0.0,23.2,24.0,precipitacao
2020-03-16,500,0.0,23.2,23.4,precipitacao
2020-03-16,600,0.0,23.4,23.5,precipitacao
2020-03-16,700,0.0,23.5,23.6,precipitacao
2020-03-16,800,0.0,23.6,23.7,precipitacao
2020-03-16,900,0.0,23.6,23.6,precipitacao
2020-03-16,1000,0.0,23.4,23.7,precipitacao
2020-03-16,1100,1.6,22.4,23.5,precipitacao
2020-03-16,1200,1.0,22.0,22.5,precipitacao
2020-03-16,1300,1.4,22.3,22.7,precipitacao
2020-03-16,1400,32.2,21.5,22.2,precipitacao
2020-03-16,1500,7.6,21.3,21.8,precipitacao
2020-03-16,1600,5.0,21.6,21.6,precipitacao
2020-03-16,1700,3.6,21.1,21.6,precipitacao
2020-03-16,1800,3.4,21.0,21.5,precipitacao
2020-03-16,1900,2.8,20.5,21.1,precipitacao
2020-03-16,2000,1.2,20.8,21.1,precipitacao
2020-03-16,2100,0.0,21.1,21.1,precipitacao
2020-03-16,2200,0.0,21.3,21.3,precipitacao
2020-03-16,2300,0.0,21.6,21.8,precipitacao
2020-06-30,0,2.8,15.0,15.7,precipitacao
2020-06-30,100,6.4,14.9,15.0,precipitacao
2020-06-30,200,3.6,15.2,15.3,precipitacao
2020-06-30,300,2.8,15.3,15.4,precipitacao
2020-06-30,400,2.8,15.4,15.4,precipitacao
2020-06-30,500,5.4,15.5,15.5,precipitacao
2020-06-30,600,7.6,15.7,15.7,precipitacao
2020-06-30,700,3.6,16.8,16.8,precipitacao
2020-06-30,800,9.0,17.0,17.1,precipitacao
2020-06-30,900,6.4,17.1,17.1,precipitacao
2020-06-30,1000,13.2,16.8,17.1,precipitacao
2020-06-30,1100,6.0,16.6,17.1,precipitacao
2020-06-30,1200,5.0,16.3,16.6,precipitacao
2020-06-30,1300,3.8,16.4,16.4,precipitacao
2020-06-30,1400,1.2,16.4,16.4,precipitacao
2020-06-30,1500,4.8,15.9,16.4,precipitacao
2020-06-30,1600,2.4,16.2,16.2,precipitacao
2020-06-30,1700,2.6,16.0,16.3,precipitacao
2020-06-30,1800,15.6,15.2,16.0,precipitacao
2020-06-30,1900,6.4,14.8,15.2,precipitacao
2020-06-30,2000,0.0,15.2,15.4,precipitacao
2020-06-30,2100,0.0,15.6,15.6,precipitacao
2020-06-30,2200,0.0,15.7,15.8,precipitacao
2020-06-30,2300,0.0,15.8,16.0,precipitacao
2020-07-07,0,0.0,13.9,14.0,precipitacao
2020-07-07,100,0.0,14.1,14.1,precipitacao
2020-07-07,200,0.0,14.1,14.1,precipitacao
2020-07-07,300,0.0,13.6,14.1,precipitacao
2020-07-07,400,0.0,12.7,14.2,precipitacao
2020-07-07,500,0.0,13.5,13.5,precipitacao
2020-07-07,600,0.0,15.9,15.9,precipitacao
2020-07-07,700,0.6,15.0,15.9,precipitacao
2020-07-07,800,0.8,14.6,15.0,precipitacao
2020-07-07,900,1.2,14.4,14.7,precipitacao
2020-07-07,1000,6.8,14.4,14.5,precipitacao
2020-07-07,1100,2.2,14.5,14.6,precipitacao
2020-07-07,1200,4.2,14.4,14.6,precipitacao
2020-07-07,1300,5.2,14.4,14.7,precipitacao
2020-07-07,1400,3.6,14.7,14.8,precipitacao
2020-07-07,1500,4.0,14.6,14.9,precipitacao
2020-07-07,1600,3.6,14.7,14.8,precipitacao
2020-07-07,1700,5.0,14.4,14.7,precipitacao
2020-07-07,1800,4.4,14.5,14.6,precipitacao
2020-07-07,1900,3.8,14.6,14.7,precipitacao
2020-07-07,2000,2.8,14.9,15.0,precipitacao
2020-07-07,2100,4.2,15.0,15.1,precipitacao
2020-07-07,2200,8.6,15.2,15.2,precipitacao
2020-07-07,2300,8.6,15.1,15.3,precipitacao
2020-07-08,0,7.8,15.2,15.2,precipitacao
2020-07-08,100,7.6,14.9,15.1,precipitacao
2020-07-08,200,6.4,14.9,15.2,precipitacao
2020-07-08,300,6.0,14.9,15.0,precipitacao
2020-07-08,400,7.0,14.9,15.2,precipitacao
2020-07-08,500,5.0,15.2,15.4,precipitacao
2020-07-08,600,6.2,15.1,15.3,precipitacao
2020-07-08,700,4.8,15.0,15.2,precipitacao
2020-07-08,800,0.2,15.3,15.3,precipitacao
2020-07-08,900,2.2,15.4,15.4,precipitacao
2020-07-08,1000,0.8,15.7,15.7,precipitacao
2020-07-08,1100,0.6,15.8,15.8,precipitacao
2020-07-08,1200,0.0,15.6,15.8,precipitacao
2020-07-08,1300,0.2,15.7,15.8,precipitacao
2020-07-08,1400,0.6,15.8,16.2,precipitacao
2020-07-08,1500,0.0,16.0,16.0,precipitacao
2020-07-08,1600,0.0,17.1,17.1,precipitacao
2020-07-08,1700,0.0,17.1,17.9,precipitacao
2020-07-08,1800,0.0,17.1,17.2,precipitacao
2020-07-08,1900,0.0,17.0,17.4,precipitacao
2020-07-08,2000,0.0,15.8,17.0,precipitacao
2020-07-08,2100,0.0,15.1,15.8,precipitacao
2020-07-08,2200,0.0,14.6,15.1,precipitacao
2020-07-08,2300,0.0,13.9,14.7,precipitacao
